-0.63146843
-1.26321397
-1.26341823
-1.26292495
-1.26174436
-1.25989374
-1.25739202
-1.25425805
-1.25051050
-1.24616787
-1.24124852
-1.23577057
-1.22975197
-1.22321040
-1.21616336
-1.20862810
-1.20062165
-1.19216086
-1.18326234
-1.17394251
-1.16421752
-1.15410334
-1.14361568
-1.13277003
-1.12158166
-1.11006561
-1.09823670
-1.08610949
-1.07369830
-1.06101722
-1.04808007
-1.03490044
-1.02149167
-1.00786685
-0.99403879
-0.98002006
-0.96582299
-0.95145966
-0.93694194
-0.92228145
-0.90748954
-0.89257733
-0.87755565
-0.86243513
-0.84722615
-0.83193886
-0.81658316
-0.80116870
-0.78570491
-0.77020102
-0.75466599
-0.73910856
-0.72353727
-0.70796038
-0.69238596
-0.67682182
-0.66127560
-0.64575471
-0.63026639
-0.61481769
-0.59941543
-0.58406622
-0.56877649
-0.55355243
-0.53840007
-0.52332523
-0.50833355
-0.49343047
-0.47862120
-0.46391078
-0.44930404
-0.43480561
-0.42041994
-0.40615128
-0.39200364
-0.37798091
-0.36408677
-0.35032477
-0.33669833
-0.32321067
-0.30986487
-0.29666385
-0.28361039
-0.27070711
-0.25795651
-0.24536092
-0.23292257
-0.22064351
-0.20852569
-0.19657087
-0.18478074
-0.17315683
-0.16170056
-0.15041324
-0.13929602
-0.12834997
-0.11757604
-0.10697509
-0.09654786
-0.08629495
-0.07621690
-0.06631411
-0.05658692
-0.04703551
-0.03766002
-0.02846043
-0.01943665
-0.01058845
-0.00191551
0.00658256
0.01490623
0.02305600
0.03103245
0.03883625
0.04646815
0.05392901
0.06121973
0.06834128
0.07529470
0.08208105
0.08870148
0.09515714
0.10144925
0.10757906
0.11354787
0.11935701
0.12500786
0.13050180
0.13584025
0.14102464
0.14605648
0.15093733
0.15566877
0.16025245
0.16469005
0.16898328
0.17313386
0.17714352
0.18101405
0.18474725
0.18834497
0.19180909
0.19514151
0.19834415
0.20141889
0.20436765
0.20719232
0.20989485
0.21247716
0.21494122
0.21728899
0.21952245
0.22164357
0.22365433
0.22555670
0.22735268
0.22904422
0.23063329
0.23212185
0.23351186
0.23480525
0.23600394
0.23710986
0.23812489
0.23905094
0.23988990
0.24064366
0.24131409
0.24190312
0.24241263
0.24284453
0.24320074
0.24348314
0.24369364
0.24383415
0.24390652
0.24391259
0.24385416
0.24373302
0.24355095
0.24330971
0.24301110
0.24265686
0.24224874
0.24178844
0.24127763
0.24071796
0.24011104
0.23945848
0.23876186
0.23802273
0.23724262
0.23642303
0.23556543
0.23467128
0.23374202
0.23277905
0.23178375
0.23075745
0.22970146
0.22861703
0.22750545
0.22636797
0.22520586
0.22402034
0.22281266
0.22158401
0.22033559
0.21906855
0.21778405
0.21648322
0.21516717
0.21383703
0.21249390
0.21113885
0.20977291
0.20839707
0.20701230
0.20561955
0.20421975
0.20281384
0.20140273
0.19998732
0.19856844
0.19714692
0.19572355
0.19429907
0.19287422
0.19144973
0.19002631
0.18860463
0.18718533
0.18576906
0.18435643
0.18294808
0.18154458
0.18014648
0.17875430
0.17736854
0.17598969
0.17461824
0.17325466
0.17189941
0.17055294
0.16921564
0.16788793
0.16657023
0.16526294
0.16396645
0.16268116
0.16140744
0.16014564
0.15889610
0.15765911
0.15643498
0.15522397
0.15402630
0.15284218
0.15167181
0.15051535
0.14937297
0.14824481
0.14713102
0.14603171
0.14494697
0.14387688
0.14282151
0.14178094
0.14075523
0.13974444
0.13874861
0.13776780
0.13680206
0.13585147
0.13491611
0.13399606
0.13309136
0.13220202
0.13132803
0.13046939
0.12962607
0.12879808
0.12798541
0.12718805
0.12640597
0.12563912
0.12488745
0.12415087
0.12342931
0.12272271
0.12203097
0.12135399
0.12069167
0.12004394
0.11941067
0.11879173
0.11818695
0.11759618
0.11701925
0.11645603
0.11590635
0.11537006
0.11484699
0.11433696
0.11383981
0.11335540
0.11288356
0.11242418
0.11197710
0.11154217
0.11111922
0.11070809
0.11030864
0.10992074
0.10954428
0.10917914
0.10882520
0.10848233
0.10815040
0.10782924
0.10751870
0.10721860
0.10692877
0.10664902
0.10637917
0.10611899
0.10586828
0.10562680
0.10539433
0.10517066
0.10495558
0.10474890
0.10455040
0.10435993
0.10417730
0.10400234
0.10383489
0.10367480
0.10352192
0.10337609
0.10323715
0.10310495
0.10297933
0.10286010
0.10274709
0.10264013
0.10253906
0.10244374
0.10235403
0.10226980
0.10219089
0.10211716
0.10204848
0.10198472
0.10192571
0.10187132
0.10182138
0.10177574
0.10173419
0.10169655
0.10166261
0.10163218
0.10160508
0.10158112
0.10156012
0.10154186
0.10152616
0.10151283
0.10150167
0.10149251
0.10148519
0.10147959
0.10147560
0.10147313
0.10147211
0.10147246
0.10147407
0.10147683
0.10148061
0.10148527
0.10149067
0.10149671
0.10150331
0.10151038
0.10151787
0.10152568
0.10153375
0.10154199
0.10155033
0.10155866
0.10156688
0.10157489
0.10158263
0.10159004
0.10159701
0.10160347
0.10160930
0.10161441
0.10161870
0.10162207
0.10162443
0.10162571
0.10162583
0.10162473
0.10162235
0.10161859
0.10161339
0.10160668
0.10159845
0.10158866
0.10157730
0.10156435
0.10154978
0.10153356
0.10151569
0.10149616
0.10147496
0.10145210
0.10142757
0.10140138
0.10137349
0.10134388
0.10131249
0.10127927
0.10124420
0.10120722
0.10116831
0.10112744
0.10108453
0.10103954
0.10099241
0.10094309
0.10089159
0.10083792
0.10078206
0.10072402
0.10066380
0.10060141
0.10053685
0.10047015
0.10040131
0.10033036
0.10025728
0.10018211
0.10010486
0.10002556
0.09994425
0.09986093
0.09977560
0.09968826
0.09959893
0.09950763
0.09941438
0.09931922
0.09922218
0.09912326
0.09902248
0.09891984
0.09881532
0.09870892
0.09860062
0.09849039
0.09837820
0.09826401
0.09814782
0.09802961
0.09790937
0.09778708
0.09766274
0.09753634
0.09740791
0.09727750
0.09714519
0.09701104
0.09687510
0.09673744
0.09659808
0.09645707
0.09631445
0.09617025
0.09602452
0.09587730
0.09572864
0.09557857
0.09542711
0.09527429
0.09512014
0.09496468
0.09480797
0.09465007
0.09449101
0.09433083
0.09416957
0.09400721
0.09384375
0.09367919
0.09351353
0.09334676
0.09317888
0.09300987
0.09283973
0.09266845
0.09249606
0.09232259
0.09214806
0.09197253
0.09179603
0.09161861
0.09144027
0.09126104
0.09108094
0.09089998
0.09071821
0.09053568
0.09035243
0.09016851
0.08998398
0.08979887
0.08961324
0.08942709
0.08924044
0.08905329
0.08886563
0.08867746
0.08848881
0.08829967
0.08811004
0.08791991
0.08772924
0.08753801
0.08734619
0.08715377
0.08696076
0.08676714
0.08657291
0.08637806
0.08618259
0.08598651
0.08578979
0.08559244
0.08539446
0.08519586
0.08499667
0.08479691
0.08459664
0.08439586
0.08419462
0.08399292
0.08379080
0.08358828
0.08338540
0.08318223
0.08297881
0.08277519
0.08257141
0.08236747
0.08216341
0.08195923
0.08175496
0.08155060
0.08134615
0.08114160
0.08093695
0.08073218
0.08052728
0.08032222
0.08011696
0.07991147
0.07970574
0.07949975
0.07929355
0.07908715
0.07888062
0.07867397
0.07846723
0.07826043
0.07805358
0.07784672
0.07763987
0.07743307
0.07722635
0.07701975
0.07681332
0.07660712
0.07640119
0.07619556
0.07599027
0.07578532
0.07558071
0.07537647
0.07517262
0.07496916
0.07476613
0.07456351
0.07436126
0.07415933
0.07395768
0.07375627
0.07355508
0.07335411
0.07315333
0.07295272
0.07275227
0.07255194
0.07235168
0.07215147
0.07195129
0.07175115
0.07155105
0.07135103
0.07115111
0.07095133
0.07075175
0.07055242
0.07035338
0.07015466
0.06995626
0.06975821
0.06956050
0.06936314
0.06916611
0.06896944
0.06877312
0.06857715
0.06838153
0.06818625
0.06799128
0.06779658
0.06760210
0.06740781
0.06721370
0.06701976
0.06682597
0.06663230
0.06643873
0.06624519
0.06605165
0.06585809
0.06566448
0.06547083
0.06527712
0.06508336
0.06488956
0.06469573
0.06450185
0.06430794
0.06411399
0.06391999
0.06372595
0.06353192
0.06333793
0.06314404
0.06295027
0.06275667
0.06256328
0.06237011
0.06217718
0.06198449
0.06179205
0.06159986
0.06140789
0.06121612
0.06102450
0.06083302
0.06064164
0.06045035
0.06025915
0.06006802
0.05987696
0.05968599
0.05949512
0.05930441
0.05911386
0.05892349
0.05873330
0.05854329
0.05835344
0.05816377
0.05797430
0.05778505
0.05759608
0.05740743
0.05721911
0.05703113
0.05684349
0.05665620
0.05646925
0.05628266
0.05609642
0.05591055
0.05572505
0.05553995
0.05535525
0.05517095
0.05498703
0.05480349
0.05462028
0.05443741
0.05425483
0.05407253
0.05389047
0.05370865
0.05352705
0.05334565
0.05316445
0.05298345
0.05280264
0.05262202
0.05244159
0.05226139
0.05208144
0.05190176
0.05172239
0.05154338
0.05136474
0.05118648
0.05100860
0.05083110
0.05065399
0.05047726
0.05030090
0.05012489
0.04994922
0.04977388
0.04959888
0.04942421
0.04924987
0.04907584
0.04890212
0.04872871
0.04855559
0.04838277
0.04821021
0.04803790
0.04786584
0.04769399
0.04752234
0.04735087
0.04717953
0.04700829
0.04683713
0.04666604
0.04649503
0.04632410
0.04615323
0.04598242
0.04581165
0.04564095
0.04547032
0.04529980
0.04512942
0.04495921
0.04478918
0.04461936
0.04444976
0.04428037
0.04411120
0.04394225
0.04377353
0.04360503
0.04343674
0.04326863
0.04310063
0.04293268
0.04276472
0.04259673
0.04242871
0.04226065
0.04209256
0.04192446
0.04175635
0.04158826
0.04142021
0.04125223
0.04108437
0.04091669
0.04074922
0.04058201
0.04041508
0.04024843
0.04008211
0.03991616
0.03975063
0.03958557
0.03942102
0.03925700
0.03909353
0.03893063
0.03876830
0.03860659
0.03844551
0.03828508
0.03812530
0.03796614
0.03780759
0.03764960
0.03749215
0.03733519
0.03717870
0.03702263
0.03686696
0.03671165
0.03655669
0.03640207
0.03624777
0.03609380
0.03594015
0.03578684
0.03563388
0.03548130
0.03532916
0.03517750
0.03502638
0.03487585
0.03472598
0.03457683
0.03442843
0.03428080
0.03413396
0.03398793
0.03384273
0.03369839
0.03355493
0.03341235
0.03327063
0.03312974
0.03298967
0.03285039
0.03271190
0.03257420
0.03243729
0.03230119
0.03216585
0.03203126
0.03189737
0.03176415
0.03163157
0.03149964
0.03136836
0.03123776
0.03110780
0.03097849
0.03084980
0.03072173
0.03059429
0.03046749
0.03034138
0.03021597
0.03009130
0.02996739
0.02984428
0.02972197
0.02960048
0.02947982
0.02935999
0.02924099
0.02912284
0.02900553
0.02888906
0.02877343
0.02865860
0.02854453
0.02843119
0.02831850
0.02820642
0.02809488
0.02798385
0.02787326
0.02776311
0.02765341
0.02754417
0.02743541
0.02732714
0.02721937
0.02711209
0.02700529
0.02689897
0.02679308
0.02668760
0.02658249
0.02647771
0.02637328
0.02626920
0.02616550
0.02606218
0.02595925
0.02585670
0.02575449
0.02565263
0.02555111
0.02544995
0.02534912
0.02524860
0.02514834
0.02504829
0.02494842
0.02484870
0.02474909
0.02464955
0.02455002
0.02445047
0.02435085
0.02425115
0.02415135
0.02405144
0.02395139
0.02385122
0.02375095
0.02365061
0.02355023
0.02344984
0.02334942
0.02324896
0.02314845
0.02304792
0.02294737
0.02284681
0.02274623
0.02264564
0.02254500
0.02244432
0.02234359
0.02224280
0.02214194
0.02204099
0.02193993
0.02183872
0.02173735
0.02163577
0.02153395
0.02143188
0.02132952
0.02122682
0.02112377
0.02102031
0.02091644
0.02081213
0.02070736
0.02060209
0.02049629
0.02038995
0.02028307
0.02017566
0.02006772
0.01995927
0.01985030
0.01974083
0.01963090
0.01952054
0.01940981
0.01929874
0.01918736
0.01907567
0.01896368
0.01885138
0.01873876
0.01862582
0.01851256
0.01839899
0.01828508
0.01817081
0.01805616
0.01794109
0.01782557
0.01770958
0.01759307
0.01747604
0.01735848
0.01724041
0.01712183
0.01700278
0.01688326
0.01676329
0.01664290
0.01652210
0.01640090
0.01627929
0.01615728
0.01603488
0.01591208
0.01578888
0.01566530
0.01554136
0.01541708
0.01529252
0.01516771
0.01504270
0.01491754
0.01479226
0.01466691
0.01454152
0.01441611
0.01429069
0.01416528
0.01403988
0.01391447
0.01378903
0.01366353
0.01353795
0.01341226
0.01328643
0.01316043
0.01303426
0.01290790
0.01278136
0.01265462
0.01252767
0.01240052
0.01227320
0.01214575
0.01201821
0.01189062
0.01176299
0.01163539
0.01150784
0.01138039
0.01125306
0.01112589
0.01099889
0.01087209
0.01074551
0.01061917
0.01049308
0.01036722
0.01024159
0.01011618
0.00999100
0.00986602
0.00974124
0.00961665
0.00949222
0.00936793
0.00924377
0.00911972
0.00899576
0.00887188
0.00874806
0.00862431
0.00850065
0.00837708
0.00825363
0.00813031
0.00800711
0.00788405
0.00776113
0.00763837
0.00751574
0.00739328
0.00727101
0.00714896
0.00702718
0.00690567
0.00678448
0.00666362
0.00654314
0.00642305
0.00630336
0.00618406
0.00606514
0.00594659
0.00582838
0.00571046
0.00559278
0.00547530
0.00535799
0.00524080
0.00512373
0.00500677
0.00488995
0.00477325
0.00465669
0.00454025
0.00442392
0.00430770
0.00419162
0.00407570
0.00395998
0.00384447
0.00372918
0.00361410
0.00349923
0.00338459
0.00327021
0.00315612
0.00304234
0.00292890
0.00281580
0.00270306
0.00259069
0.00247874
0.00236723
0.00225616
0.00214550
0.00203522
0.00192527
0.00181561
0.00170622
0.00159707
0.00148814
0.00137938
0.00127079
0.00116233
0.00105398
0.00094575
0.00083764
0.00072965
0.00062180
0.00051411
0.00040661
0.00029936
0.00019240
0.00008575
-0.00002052
-0.00012638
-0.00023177
-0.00033666
-0.00044102
-0.00054481
-0.00064800
-0.00075053
-0.00085238
-0.00095351
-0.00105393
-0.00115366
-0.00125272
-0.00135115
-0.00144894
-0.00154611
-0.00164266
-0.00173861
-0.00183399
-0.00192880
-0.00202306
-0.00211680
-0.00221003
-0.00230280
-0.00239511
-0.00248695
-0.00257832
-0.00266918
-0.00275953
-0.00284933
-0.00293858
-0.00302724
-0.00311529
-0.00320270
-0.00328943
-0.00337542
-0.00346065
-0.00354510
-0.00362875
-0.00371160
-0.00379362
-0.00387481
-0.00395514
-0.00403459
-0.00411315
-0.00419082
-0.00426758
-0.00434342
-0.00441835
-0.00449240
-0.00456559
-0.00463798
-0.00470960
-0.00478049
-0.00485067
-0.00492015
-0.00498895
-0.00505709
-0.00512459
-0.00519146
-0.00525772
-0.00532337
-0.00538841
-0.00545285
-0.00551666
-0.00557986
-0.00564247
-0.00570450
-0.00576598
-0.00582693
-0.00588735
-0.00594723
-0.00600654
-0.00606526
-0.00612337
-0.00618086
-0.00623771
-0.00629393
-0.00634949
-0.00640439
-0.00645865
-0.00651228
-0.00656530
-0.00661776
-0.00666970
-0.00672116
-0.00677218
-0.00682281
-0.00687310
-0.00692306
-0.00697272
-0.00702211
-0.00707124
-0.00712011
-0.00716869
-0.00721692
-0.00726478
-0.00731224
-0.00735929
-0.00740594
-0.00745221
-0.00749811
-0.00754366
-0.00758885
-0.00763370
-0.00767819
-0.00772235
-0.00776614
-0.00780958
-0.00785264
-0.00789531
-0.00793760
-0.00797951
-0.00802104
-0.00806220
-0.00810299
-0.00814343
-0.00818353
-0.00822330
-0.00826276
-0.00830193
-0.00834085
-0.00837952
-0.00841796
-0.00845619
-0.00849421
-0.00853201
-0.00856959
-0.00860693
-0.00864403
-0.00868087
-0.00871742
-0.00875370
-0.00878968
-0.00882536
-0.00886076
-0.00889584
-0.00893060
-0.00896502
-0.00899911
-0.00903288
-0.00906632
-0.00909945
-0.00913228
-0.00916483
-0.00919708
-0.00922905
-0.00926076
-0.00929223
-0.00932351
-0.00935462
-0.00938558
-0.00941642
-0.00944717
-0.00947786
-0.00950852
-0.00953916
-0.00956977
-0.00960035
-0.00963089
-0.00966137
-0.00969178
-0.00972213
-0.00975239
-0.00978253
-0.00981254
-0.00984241
-0.00987214
-0.00990171
-0.00993114
-0.00996038
-0.00998942
-0.01001822
-0.01004675
-0.01007499
-0.01010289
-0.01013045
-0.01015764
-0.01018447
-0.01021093
-0.01023704
-0.01026278
-0.01028816
-0.01031319
-0.01033788
-0.01036223
-0.01038628
-0.01041009
-0.01043366
-0.01045704
-0.01048025
-0.01050328
-0.01052614
-0.01054883
-0.01057132
-0.01059360
-0.01061567
-0.01063751
-0.01065914
-0.01068055
-0.01070171
-0.01072259
-0.01074312
-0.01076327
-0.01078301
-0.01080233
-0.01082120
-0.01083963
-0.01085760
-0.01087511
-0.01089214
-0.01090868
-0.01092471
-0.01094024
-0.01095527
-0.01096980
-0.01098385
-0.01099749
-0.01101076
-0.01102372
-0.01103643
-0.01104893
-0.01106126
-0.01107345
-0.01108550
-0.01109743
-0.01110923
-0.01112088
-0.01113237
-0.01114366
-0.01115473
-0.01116559
-0.01117622
-0.01118662
-0.01119678
-0.01120670
-0.01121634
-0.01122567
-0.01123466
-0.01124332
-0.01125165
-0.01125964
-0.01126731
-0.01127466
-0.01128172
-0.01128850
-0.01129500
-0.01130125
-0.01130727
-0.01131310
-0.01131873
-0.01132420
-0.01132949
-0.01133461
-0.01133953
-0.01134425
-0.01134878
-0.01135311
-0.01135724
-0.01136117
-0.01136486
-0.01136830
-0.01137149
-0.01137440
-0.01137705
-0.01137944
-0.01138159
-0.01138349
-0.01138516
-0.01138661
-0.01138785
-0.01138888
-0.01138970
-0.01139026
-0.01139054
-0.01139048
-0.01139007
-0.01138929
-0.01138814
-0.01138662
-0.01138475
-0.01138256
-0.01138009
-0.01137740
-0.01137450
-0.01137144
-0.01136824
-0.01136494
-0.01136158
-0.01135819
-0.01135478
-0.01135139
-0.01134800
-0.01134461
-0.01134121
-0.01133780
-0.01133437
-0.01133091
-0.01132743
-0.01132395
-0.01132046
-0.01131696
-0.01131345
-0.01130990
-0.01130627
-0.01130257
-0.01129877
-0.01129484
-0.01129079
-0.01128661
-0.01128230
-0.01127790
-0.01127339
-0.01126877
-0.01126404
-0.01125922
-0.01125434
-0.01124944
-0.01124457
-0.01123975
-0.01123503
-0.01123044
-0.01122603
-0.01122181
-0.01121778
-0.01121395
-0.01121029
-0.01120683
-0.01120357
-0.01120051
-0.01119762
-0.01119488
-0.01119227
-0.01118975
-0.01118728
-0.01118480
-0.01118227
-0.01117968
-0.01117699
-0.01117419
-0.01117126
-0.01116817
-0.01116494
-0.01116155
-0.01115802
-0.01115434
-0.01115054
-0.01114661
-0.01114258
-0.01113849
-0.01113439
-0.01113033
-0.01112635
-0.01112246
-0.01111869
-0.01111504
-0.01111154
-0.01110821
-0.01110505
-0.01110207
-0.01109928
-0.01109666
-0.01109421
-0.01109189
-0.01108967
-0.01108755
-0.01108554
-0.01108363
-0.01108183
-0.01108013
-0.01107851
-0.01107697
-0.01107550
-0.01107405
-0.01107261
-0.01107115
-0.01106965
-0.01106809
-0.01106646
-0.01106475
-0.01106297
-0.01106115
-0.01105930
-0.01105747
-0.01105570
-0.01105402
-0.01105246
-0.01105104
-0.01104978
-0.01104871
-0.01104788
-0.01104734
-0.01104709
-0.01104713
-0.01104745
-0.01104804
-0.01104886
-0.01104989
-0.01105111
-0.01105251
-0.01105407
-0.01105580
-0.01105767
-0.01105968
-0.01106181
-0.01106404
-0.01106634
-0.01106869
-0.01107107
-0.01107346
-0.01107583
-0.01107816
-0.01108039
-0.01108251
-0.01108449
-0.01108634
-0.01108808
-0.01108975
-0.01109136
-0.01109295
-0.01109453
-0.01109611
-0.01109773
-0.01109942
-0.01110120
-0.01110309
-0.01110510
-0.01110723
-0.01110949
-0.01111185
-0.01111431
-0.01111684
-0.01111941
-0.01112196
-0.01112447
-0.01112690
-0.01112923
-0.01113145
-0.01113355
-0.01113553
-0.01113739
-0.01113911
-0.01114069
-0.01114211
-0.01114338
-0.01114448
-0.01114543
-0.01114623
-0.01114688
-0.01114741
-0.01114782
-0.01114814
-0.01114836
-0.01114848
-0.01114852
-0.01114849
-0.01114840
-0.01114828
-0.01114813
-0.01114797
-0.01114779
-0.01114758
-0.01114733
-0.01114702
-0.01114662
-0.01114612
-0.01114548
-0.01114471
-0.01114380
-0.01114278
-0.01114165
-0.01114041
-0.01113903
-0.01113749
-0.01113576
-0.01113382
-0.01113166
-0.01112927
-0.01112664
-0.01112379
-0.01112071
-0.01111742
-0.01111391
-0.01111023
-0.01110639
-0.01110245
-0.01109842
-0.01109434
-0.01109022
-0.01108609
-0.01108195
-0.01107782
-0.01107368
-0.01106953
-0.01106535
-0.01106109
-0.01105675
-0.01105229
-0.01104770
-0.01104297
-0.01103809
-0.01103306
-0.01102784
-0.01102241
-0.01101674
-0.01101081
-0.01100460
-0.01099809
-0.01099129
-0.01098420
-0.01097682
-0.01096915
-0.01096117
-0.01095287
-0.01094423
-0.01093527
-0.01092603
-0.01091655
-0.01090690
-0.01089710
-0.01088718
-0.01087717
-0.01086708
-0.01085693
-0.01084675
-0.01083657
-0.01082640
-0.01081627
-0.01080619
-0.01079613
-0.01078609
-0.01077608
-0.01076608
-0.01075612
-0.01074620
-0.01073633
-0.01072651
-0.01071671
-0.01070695
-0.01069720
-0.01068748
-0.01067777
-0.01066809
-0.01065844
-0.01064880
-0.01063916
-0.01062953
-0.01061993
-0.01061039
-0.01060098
-0.01059173
-0.01058265
-0.01057376
-0.01056509
-0.01055665
-0.01054846
-0.01054054
-0.01053287
-0.01052547
-0.01051834
-0.01051149
-0.01050493
-0.01049865
-0.01049265
-0.01048690
-0.01048141
-0.01047615
-0.01047109
-0.01046615
-0.01046130
-0.01045650
-0.01045170
-0.01044689
-0.01044203
-0.01043709
-0.01043206
-0.01042692
-0.01042164
-0.01041621
-0.01041058
-0.01040475
-0.01039872
-0.01039247
-0.01038601
-0.01037936
-0.01037254
-0.01036556
-0.01035846
-0.01035125
-0.01034395
-0.01033654
-0.01032898
-0.01032125
-0.01031329
-0.01030507
-0.01029659
-0.01028783
-0.01027881
-0.01026952
-0.01025995
-0.01025011
-0.01023998
-0.01022955
-0.01021880
-0.01020772
-0.01019630
-0.01018454
-0.01017245
-0.01016004
-0.01014730
-0.01013423
-0.01012083
-0.01010707
-0.01009294
-0.01007842
-0.01006350
-0.01004817
-0.01003246
-0.01001642
-0.01000010
-0.00998354
-0.00996676
-0.00994978
-0.00993260
-0.00991521
-0.00989763
-0.00987986
-0.00986190
-0.00984378
-0.00982551
-0.00980708
-0.00978848
-0.00976966
-0.00975061
-0.00973131
-0.00971176
-0.00969192
-0.00967178
-0.00965133
-0.00963055
-0.00960942
-0.00958794
-0.00956610
-0.00954389
-0.00952133
-0.00949841
-0.00947514
-0.00945152
-0.00942757
-0.00940331
-0.00937878
-0.00935403
-0.00932907
-0.00930392
-0.00927862
-0.00925316
-0.00922758
-0.00920190
-0.00917614
-0.00915030
-0.00912438
-0.00909839
-0.00907234
-0.00904622
-0.00902004
-0.00899381
-0.00896754
-0.00894122
-0.00891481
-0.00888830
-0.00886163
-0.00883479
-0.00880771
-0.00878038
-0.00875275
-0.00872482
-0.00869659
-0.00866805
-0.00863921
-0.00861007
-0.00858063
-0.00855089
-0.00852086
-0.00849056
-0.00846006
-0.00842940
-0.00839865
-0.00836781
-0.00833693
-0.00830600
-0.00827504
-0.00824405
-0.00821303
-0.00818199
-0.00815093
-0.00811985
-0.00808877
-0.00805767
-0.00802658
-0.00799550
-0.00796446
-0.00793346
-0.00790253
-0.00787167
-0.00784091
-0.00781024
-0.00777968
-0.00774926
-0.00771899
-0.00768888
-0.00765893
-0.00762911
-0.00759944
-0.00756991
-0.00754052
-0.00751128
-0.00748223
-0.00745341
-0.00742486
-0.00739665
-0.00736879
-0.00734131
-0.00731424
-0.00728762
-0.00726148
-0.00723585
-0.00721076
-0.00718621
-0.00716220
-0.00713871
-0.00711570
-0.00709315
-0.00707100
-0.00704924
-0.00702784
-0.00700677
-0.00698598
-0.00696546
-0.00694519
-0.00692516
-0.00690534
-0.00688574
-0.00686633
-0.00684709
-0.00682800
-0.00680902
-0.00679016
-0.00677143
-0.00675285
-0.00673442
-0.00671615
-0.00669807
-0.00668018
-0.00666252
-0.00664508
-0.00662787
-0.00661089
-0.00659417
-0.00657772
-0.00656154
-0.00654564
-0.00653002
-0.00651469
-0.00649962
-0.00648478
-0.00647012
-0.00645557
-0.00644109
-0.00642659
-0.00641199
-0.00639719
-0.00638213
-0.00636674
-0.00635099
-0.00633484
-0.00631829
-0.00630132
-0.00628393
-0.00626612
-0.00624790
-0.00622928
-0.00621026
-0.00619089
-0.00617121
-0.00615128
-0.00613113
-0.00611080
-0.00609033
-0.00606972
-0.00604900
-0.00602816
-0.00600724
-0.00598625
-0.00596524
-0.00594424
-0.00592328
-0.00590237
-0.00588149
-0.00586064
-0.00583977
-0.00581887
-0.00579789
-0.00577684
-0.00575569
-0.00573444
-0.00571308
-0.00569157
-0.00566989
-0.00564801
-0.00562591
-0.00560358
-0.00558101
-0.00555819
-0.00553513
-0.00551182
-0.00548827
-0.00546451
-0.00544057
-0.00541649
-0.00539230
-0.00536802
-0.00534368
-0.00531928
-0.00529486
-0.00527042
-0.00524599
-0.00522159
-0.00519721
-0.00517285
-0.00514849
-0.00512407
-0.00509956
-0.00507492
-0.00505012
-0.00502516
-0.00500005
-0.00497479
-0.00494939
-0.00492382
-0.00489806
-0.00487208
-0.00484588
-0.00481944
-0.00479277
-0.00476587
-0.00473874
-0.00471138
-0.00468379
-0.00465598
-0.00462797
-0.00459975
-0.00457137
-0.00454284
-0.00451419
-0.00448545
-0.00445666
-0.00442787
-0.00439910
-0.00437039
-0.00434177
-0.00431327
-0.00428489
-0.00425666
-0.00422855
-0.00420057
-0.00417271
-0.00414498
-0.00411737
-0.00408984
-0.00406236
-0.00403488
-0.00400735
-0.00397973
-0.00395201
-0.00392415
-0.00389615
-0.00386800
-0.00383971
-0.00381129
-0.00378274
-0.00375410
-0.00372537
-0.00369660
-0.00366782
-0.00363907
-0.00361042
-0.00358192
-0.00355359
-0.00352545
-0.00349750
-0.00346977
-0.00344227
-0.00341501
-0.00338803
-0.00336137
-0.00333501
-0.00330896
-0.00328321
-0.00325774
-0.00323258
-0.00320773
-0.00318315
-0.00315883
-0.00313475
-0.00311088
-0.00308720
-0.00306370
-0.00304037
-0.00301720
-0.00299416
-0.00297120
-0.00294830
-0.00292544
-0.00290263
-0.00287991
-0.00285731
-0.00283488
-0.00281265
-0.00279065
-0.00276892
-0.00274748
-0.00272634
-0.00270554
-0.00268508
-0.00266498
-0.00264525
-0.00262591
-0.00260696
-0.00258838
-0.00257018
-0.00255232
-0.00253480
-0.00251759
-0.00250070
-0.00248417
-0.00246800
-0.00245218
-0.00243673
-0.00242163
-0.00240687
-0.00239246
-0.00237840
-0.00236468
-0.00235130
-0.00233825
-0.00232553
-0.00231316
-0.00230115
-0.00228953
-0.00227832
-0.00226754
-0.00225722
-0.00224738
-0.00223805
-0.00222925
-0.00222099
-0.00221328
-0.00220614
-0.00219957
-0.00219356
-0.00218813
-0.00218325
-0.00217892
-0.00217508
-0.00217172
-0.00216882
-0.00216637
-0.00216437
-0.00216284
-0.00216175
-0.00216106
-0.00216075
-0.00216077
-0.00216108
-0.00216163
-0.00216238
-0.00216328
-0.00216430
-0.00216541
-0.00216658
-0.00216780
-0.00216904
-0.00217032
-0.00217163
-0.00217300
-0.00217446
-0.00217602
-0.00217769
-0.00217948
-0.00218139
-0.00218342
-0.00218555
-0.00218780
-0.00219015
-0.00219260
-0.00219514
-0.00219776
-0.00220045
-0.00220319
-0.00220599
-0.00220881
-0.00221169
-0.00221461
-0.00221759
-0.00222063
-0.00222371
-0.00222683
-0.00222997
-0.00223313
-0.00223628
-0.00223942
-0.00224252
-0.00224557
-0.00224856
-0.00225151
-0.00225441
-0.00225731
-0.00226026
-0.00226332
-0.00226654
-0.00226998
-0.00227365
-0.00227758
-0.00228180
-0.00228633
-0.00229120
-0.00229645
-0.00230209
-0.00230812
-0.00231452
-0.00232127
-0.00232834
-0.00233571
-0.00234334
-0.00235120
-0.00235924
-0.00236743
-0.00237576
-0.00238423
-0.00239282
-0.00240154
-0.00241035
-0.00241924
-0.00242819
-0.00243718
-0.00244619
-0.00245523
-0.00246426
-0.00247329
-0.00248230
-0.00249127
-0.00250022
-0.00250915
-0.00251809
-0.00252707
-0.00253609
-0.00254519
-0.00255438
-0.00256368
-0.00257311
-0.00258268
-0.00259243
-0.00260236
-0.00261249
-0.00262278
-0.00263322
-0.00264376
-0.00265435
-0.00266494
-0.00267547
-0.00268590
-0.00269621
-0.00270637
-0.00271634
-0.00272607
-0.00273550
-0.00274463
-0.00275344
-0.00276193
-0.00277010
-0.00277796
-0.00278550
-0.00279272
-0.00279965
-0.00280632
-0.00281280
-0.00281911
-0.00282529
-0.00283133
-0.00283723
-0.00284296
-0.00284852
-0.00285390
-0.00285912
-0.00286417
-0.00286905
-0.00287372
-0.00287817
-0.00288236
-0.00288627
-0.00288987
-0.00289314
-0.00289603
-0.00289850
-0.00290054
-0.00290213
-0.00290325
-0.00290386
-0.00290390
-0.00290334
-0.00290215
-0.00290029
-0.00289776
-0.00289455
-0.00289066
-0.00288610
-0.00288088
-0.00287504
-0.00286861
-0.00286164
-0.00285415
-0.00284617
-0.00283772
-0.00282881
-0.00281948
-0.00280973
-0.00279959
-0.00278907
-0.00277819
-0.00276692
-0.00275524
-0.00274311
-0.00273053
-0.00271748
-0.00270396
-0.00268997
-0.00267552
-0.00266060
-0.00264523
-0.00262939
-0.00261306
-0.00259624
-0.00257890
-0.00256105
-0.00254268
-0.00252375
-0.00250427
-0.00248420
-0.00246354
-0.00244225
-0.00242034
-0.00239782
-0.00237468
-0.00235096
-0.00232665
-0.00230177
-0.00227633
-0.00225034
-0.00222378
-0.00219665
-0.00216893
-0.00214061
-0.00211169
-0.00208215
-0.00205198
-0.00202117
-0.00198972
-0.00195762
-0.00192490
-0.00189153
-0.00185750
-0.00182279
-0.00178738
-0.00175127
-0.00171446
-0.00167693
-0.00163868
-0.00159971
-0.00156005
-0.00151972
-0.00147874
-0.00143712
-0.00139486
-0.00135198
-0.00130849
-0.00126443
-0.00121984
-0.00117478
-0.00112928
-0.00108341
-0.00103721
-0.00099074
-0.00094405
-0.00089718
-0.00085013
-0.00080294
-0.00075562
-0.00070816
-0.00066059
-0.00061289
-0.00056509
-0.00051722
-0.00046930
-0.00042134
-0.00037335
-0.00032531
-0.00027725
-0.00022915
-0.00018099
-0.00013277
-0.00008450
-0.00003619
0.00001212
0.00006039
0.00010860
0.00015672
0.00020469
0.00025246
0.00029999
0.00034722
0.00039408
0.00044051
0.00048644
0.00053184
0.00057669
0.00062095
0.00066463
0.00070771
0.00075018
0.00079205
0.00083330
0.00087393
0.00091394
0.00095332
0.00099206
0.00103017
0.00106768
0.00110460
0.00114095
0.00117677
0.00121207
0.00124687
0.00128118
0.00131502
0.00134838
0.00138127
0.00141370
0.00144567
0.00147719
0.00150826
0.00153887
0.00156899
0.00159856
0.00162756
0.00165596
0.00168372
0.00171081
0.00173719
0.00176284
0.00178772
0.00181182
0.00183510
0.00185757
0.00187925
0.00190019
0.00192041
0.00193994
0.00195883
0.00197712
0.00199487
0.00201213
0.00202894
0.00204533
0.00206135
0.00207701
0.00209231
0.00210726
0.00212185
0.00213609
0.00214998
0.00216351
0.00217670
0.00218955
0.00220202
0.00221408
0.00222569
0.00223680
0.00224741
0.00225751
0.00226709
0.00227615
0.00228465
0.00229257
0.00229988
0.00230657
0.00231263
0.00231810
0.00232301
0.00232736
0.00233120
0.00233452
0.00233734
0.00233968
0.00234155
0.00234299
0.00234403
0.00234472
0.00234509
0.00234520
0.00234508
0.00234477
0.00234429
0.00234368
0.00234295
0.00234210
0.00234114
0.00234008
0.00233892
0.00233767
0.00233631
0.00233484
0.00233322
0.00233142
0.00232939
0.00232713
0.00232462
0.00232185
0.00231886
0.00231567
0.00231231
0.00230879
0.00230513
0.00230133
0.00229737
0.00229321
0.00228883
0.00228421
0.00227937
0.00227432
0.00226909
0.00226372
0.00225822
0.00225263
0.00224696
0.00224122
0.00223542
0.00222957
0.00222368
0.00221780
0.00221195
0.00220614
0.00220039
0.00219469
0.00218902
0.00218337
0.00217770
0.00217199
0.00216622
0.00216038
0.00215447
0.00214849
0.00214243
0.00213629
0.00213006
0.00212375
0.00211737
0.00211094
0.00210451
0.00209814
0.00209189
0.00208578
0.00207983
0.00207406
0.00206848
0.00206313
0.00205801
0.00205313
0.00204852
0.00204415
0.00204004
0.00203615
0.00203250
0.00202905
0.00202578
0.00202266
0.00201963
0.00201665
0.00201371
0.00201079
0.00200786
0.00200491
0.00200192
0.00199885
0.00199567
0.00199234
0.00198882
0.00198509
0.00198116
0.00197702
0.00197268
0.00196812
0.00196333
0.00195832
0.00195309
0.00194768
0.00194212
0.00193648
0.00193079
0.00192509
0.00191940
0.00191372
0.00190804
0.00190238
0.00189673
0.00189111
0.00188549
0.00187989
0.00187427
0.00186864
0.00186296
0.00185722
0.00185138
0.00184541
0.00183930
0.00183306
0.00182668
0.00182021
0.00181368
0.00180711
0.00180053
0.00179397
0.00178744
0.00178095
0.00177451
0.00176813
0.00176180
0.00175553
0.00174933
0.00174323
0.00173725
0.00173140
0.00172569
0.00172012
0.00171471
0.00170945
0.00170437
0.00169949
0.00169485
0.00169044
0.00168624
0.00168221
0.00167828
0.00167441
0.00167055
0.00166664
0.00166266
0.00165853
0.00165420
0.00164961
0.00164470
0.00163945
0.00163383
0.00162787
0.00162158
0.00161498
0.00160812
0.00160103
0.00159375
0.00158635
0.00157887
0.00157135
0.00156380
0.00155623
0.00154867
0.00154113
0.00153360
0.00152611
0.00151866
0.00151125
0.00150388
0.00149655
0.00148926
0.00148199
0.00147472
0.00146742
0.00146004
0.00145257
0.00144501
0.00143735
0.00142958
0.00142169
0.00141365
0.00140545
0.00139707
0.00138851
0.00137978
0.00137088
0.00136187
0.00135278
0.00134364
0.00133450
0.00132539
0.00131635
0.00130741
0.00129859
0.00128988
0.00128132
0.00127291
0.00126468
0.00125665
0.00124883
0.00124121
0.00123381
0.00122660
0.00121958
0.00121273
0.00120604
0.00119949
0.00119303
0.00118665
0.00118028
0.00117391
0.00116749
0.00116100
0.00115442
0.00114776
0.00114100
0.00113416
0.00112721
0.00112017
0.00111302
0.00110576
0.00109839
0.00109088
0.00108322
0.00107537
0.00106728
0.00105896
0.00105040
0.00104164
0.00103269
0.00102357
0.00101430
0.00100488
0.00099536
0.00098577
0.00097613
0.00096648
0.00095680
0.00094710
0.00093735
0.00092755
0.00091768
0.00090772
0.00089768
0.00088753
0.00087727
0.00086688
0.00085635
0.00084565
0.00083479
0.00082375
0.00081255
0.00080124
0.00078983
0.00077836
0.00076687
0.00075536
0.00074385
0.00073234
0.00072083
0.00070935
0.00069790
0.00068651
0.00067518
0.00066393
0.00065275
0.00064166
0.00063066
0.00061973
0.00060888
0.00059809
0.00058735
0.00057666
0.00056601
0.00055542
0.00054489
0.00053441
0.00052394
0.00051346
0.00050292
0.00049226
0.00048146
0.00047052
0.00045944
0.00044823
0.00043689
0.00042543
0.00041385
0.00040216
0.00039035
0.00037846
0.00036648
0.00035445
0.00034241
0.00033039
0.00031845
0.00030660
0.00029487
0.00028325
0.00027175
0.00026038
0.00024915
0.00023805
0.00022705
0.00021613
0.00020524
0.00019435
0.00018344
0.00017249
0.00016148
0.00015039
0.00013919
0.00012786
0.00011639
0.00010478
0.00009303
0.00008114
0.00006909
0.00005688
0.00004450
0.00003196
0.00001928
0.00000649
-0.00000638
-0.00001930
-0.00003221
-0.00004507
-0.00005788
-0.00007061
-0.00008325
-0.00009579
-0.00010821
-0.00012051
-0.00013268
-0.00014471
-0.00015660
-0.00016834
-0.00017993
-0.00019138
-0.00020269
-0.00021389
-0.00022498
-0.00023599
-0.00024695
-0.00025786
-0.00026877
-0.00027968
-0.00029064
-0.00030166
-0.00031277
-0.00032398
-0.00033526
-0.00034660
-0.00035796
-0.00036927
-0.00038052
-0.00039170
-0.00040281
-0.00041386
-0.00042485
-0.00043576
-0.00044656
-0.00045723
-0.00046773
-0.00047804
-0.00048815
-0.00049806
-0.00050774
-0.00051723
-0.00052651
-0.00053561
-0.00054454
-0.00055330
-0.00056187
-0.00057028
-0.00057853
-0.00058663
-0.00059459
-0.00060239
-0.00061006
-0.00061760
-0.00062504
-0.00063241
-0.00063974
-0.00064704
-0.00065432
-0.00066155
-0.00066872
-0.00067580
-0.00068278
-0.00068962
-0.00069627
-0.00070269
-0.00070883
-0.00071464
-0.00072010
-0.00072516
-0.00072981
-0.00073401
-0.00073775
-0.00074100
-0.00074372
-0.00074589
-0.00074748
-0.00074848
-0.00074893
-0.00074884
-0.00074826
-0.00074721
-0.00074572
-0.00074380
-0.00074144
-0.00073867
-0.00073547
-0.00073188
-0.00072791
-0.00072358
-0.00071889
-0.00071385
-0.00070846
-0.00070270
-0.00069656
-0.00069006
-0.00068320
-0.00067602
-0.00066858
-0.00066087
-0.00065291
-0.00064468
-0.00063618
-0.00062739
-0.00061831
-0.00060890
-0.00059914
-0.00058899
-0.00057844
-0.00056749
-0.00055617
-0.00054452
-0.00053255
-0.00052032
-0.00050785
-0.00049518
-0.00048233
-0.00046935
-0.00045629
-0.00044319
-0.00043010
-0.00041704
-0.00040404
-0.00039109
-0.00037822
-0.00036541
-0.00035265
-0.00033993
-0.00032723
-0.00031455
-0.00030185
-0.00028914
-0.00027642
-0.00026369
-0.00025096
-0.00023826
-0.00022558
-0.00021293
-0.00020028
-0.00018762
-0.00017493
-0.00016219
-0.00014939
-0.00013652
-0.00012356
-0.00011050
-0.00009733
-0.00008406
-0.00007070
-0.00005727
-0.00004378
-0.00003022
-0.00001661
-0.00000296
0.00001071
0.00002438
0.00003804
0.00005168
0.00006527
0.00007882
0.00009234
0.00010583
0.00011930
0.00013275
0.00014618
0.00015957
0.00017295
0.00018629
0.00019960
0.00021288
0.00022611
0.00023932
0.00025250
0.00026565
0.00027880
0.00029192
0.00030504
0.00031813
0.00033118
0.00034416
0.00035705
0.00036983
0.00038246
0.00039494
0.00040727
0.00041945
0.00043153
0.00044351
0.00045543
0.00046731
0.00047916
0.00049100
0.00050283
0.00051467
0.00052652
0.00053837
0.00055021
0.00056206
0.00057392
0.00058581
0.00059774
0.00060973
0.00062177
0.00063389
0.00064610
0.00065840
0.00067081
0.00068331
0.00069592
0.00070862
0.00072141
0.00073429
0.00074723
0.00076021
0.00077320
0.00078618
0.00079911
0.00081196
0.00082467
0.00083721
0.00084953
0.00086160
0.00087338
0.00088485
0.00089602
0.00090691
0.00091752
0.00092789
0.00093803
0.00094795
0.00095767
0.00096719
0.00097654
0.00098571
0.00099471
0.00100355
0.00101220
0.00102067
0.00102895
0.00103701
0.00104487
0.00105251
0.00105994
0.00106715
0.00107412
0.00108081
0.00108719
0.00109323
0.00109891
0.00110421
0.00110909
0.00111355
0.00111754
0.00112105
0.00112406
0.00112657
0.00112856
0.00113004
0.00113100
0.00113146
0.00113143
0.00113091
0.00112991
0.00112844
0.00112654
0.00112425
0.00112161
0.00111867
0.00111543
0.00111189
0.00110808
0.00110400
0.00109967
0.00109511
0.00109034
0.00108537
0.00108023
0.00107491
0.00106940
0.00106368
0.00105773
0.00105150
0.00104496
0.00103810
0.00103089
0.00102336
0.00101552
0.00100739
0.00099899
0.00099034
0.00098144
0.00097228
0.00096288
0.00095326
0.00094345
0.00093347
0.00092332
0.00091300
0.00090251
0.00089185
0.00088102
0.00087005
0.00085896
0.00084776
0.00083649
0.00082517
0.00081382
0.00080247
0.00079114
0.00077982
0.00076849
0.00075712
0.00074570
0.00073418
0.00072254
0.00071073
0.00069873
0.00068651
0.00067405
0.00066138
0.00064849
0.00063540
0.00062211
0.00060862
0.00059496
0.00058118
0.00056732
0.00055342
0.00053952
0.00052563
0.00051178
0.00049801
0.00048432
0.00047073
0.00045723
0.00044383
0.00043054
0.00041735
0.00040429
0.00039136
0.00037858
0.00036596
0.00035351
0.00034121
0.00032909
0.00031713
0.00030533
0.00029365
0.00028204
0.00027047
0.00025893
0.00024741
0.00023589
0.00022434
0.00021275
0.00020108
0.00018934
0.00017751
0.00016561
0.00015367
0.00014175
0.00012986
0.00011805
0.00010634
0.00009478
0.00008342
0.00007229
0.00006143
0.00005086
0.00004061
0.00003069
0.00002109
0.00001182
0.00000288
-0.00000574
-0.00001404
-0.00002203
-0.00002971
-0.00003707
-0.00004415
-0.00005097
-0.00005759
-0.00006402
-0.00007027
-0.00007633
-0.00008218
-0.00008781
-0.00009320
-0.00009835
-0.00010325
-0.00010791
-0.00011231
-0.00011647
-0.00012040
-0.00012412
-0.00012763
-0.00013094
-0.00013408
-0.00013706
-0.00013990
-0.00014260
-0.00014516
-0.00014758
-0.00014985
-0.00015196
-0.00015389
-0.00015562
-0.00015715
-0.00015845
-0.00015953
-0.00016039
-0.00016107
-0.00016157
-0.00016191
-0.00016211
-0.00016218
-0.00016215
-0.00016205
-0.00016192
-0.00016178
-0.00016166
-0.00016159
-0.00016155
-0.00016154
-0.00016154
-0.00016154
-0.00016151
-0.00016143
-0.00016130
-0.00016111
-0.00016086
-0.00016056
-0.00016024
-0.00015990
-0.00015955
-0.00015920
-0.00015882
-0.00015842
-0.00015799
-0.00015753
-0.00015703
-0.00015650
-0.00015594
-0.00015536
-0.00015474
-0.00015410
-0.00015343
-0.00015274
-0.00015205
-0.00015137
-0.00015073
-0.00015014
-0.00014964
-0.00014922
-0.00014890
-0.00014869
-0.00014858
-0.00014857
-0.00014866
-0.00014883
-0.00014910
-0.00014946
-0.00014990
-0.00015037
-0.00015086
-0.00015131
-0.00015172
-0.00015207
-0.00015235
-0.00015256
-0.00015271
-0.00015278
-0.00015280
-0.00015275
-0.00015267
-0.00015258
-0.00015249
-0.00015243
-0.00015239
-0.00015239
-0.00015244
-0.00015256
-0.00015276
-0.00015305
-0.00015344
-0.00015392
-0.00015452
-0.00015523
-0.00015607
-0.00015705
-0.00015817
-0.00015943
-0.00016082
-0.00016235
-0.00016402
-0.00016581
-0.00016769
-0.00016964
-0.00017160
-0.00017356
-0.00017549
-0.00017738
-0.00017923
-0.00018101
-0.00018273
-0.00018435
-0.00018589
-0.00018733
-0.00018866
-0.00018986
-0.00019092
-0.00019188
-0.00019276
-0.00019361
-0.00019448
-0.00019543
-0.00019650
-0.00019772
-0.00019909
-0.00020061
-0.00020229
-0.00020412
-0.00020610
-0.00020821
-0.00021045
-0.00021281
-0.00021528
-0.00021786
-0.00022054
-0.00022333
-0.00022623
-0.00022923
-0.00023230
-0.00023543
-0.00023860
-0.00024180
-0.00024500
-0.00024817
-0.00025129
-0.00025433
-0.00025728
-0.00026011
-0.00026279
-0.00026530
-0.00026764
-0.00026983
-0.00027190
-0.00027387
-0.00027578
-0.00027764
-0.00027946
-0.00028124
-0.00028297
-0.00028465
-0.00028629
-0.00028790
-0.00028950
-0.00029107
-0.00029263
-0.00029415
-0.00029565
-0.00029711
-0.00029857
-0.00030002
-0.00030150
-0.00030302
-0.00030458
-0.00030617
-0.00030776
-0.00030933
-0.00031088
-0.00031237
-0.00031379
-0.00031512
-0.00031634
-0.00031743
-0.00031841
-0.00031926
-0.00032001
-0.00032065
-0.00032120
-0.00032168
-0.00032209
-0.00032243
-0.00032271
-0.00032295
-0.00032316
-0.00032334
-0.00032350
-0.00032361
-0.00032368
-0.00032370
-0.00032367
-0.00032358
-0.00032344
-0.00032322
-0.00032290
-0.00032245
-0.00032185
-0.00032108
-0.00032015
-0.00031904
-0.00031774
-0.00031623
-0.00031448
-0.00031246
-0.00031015
-0.00030753
-0.00030461
-0.00030141
-0.00029794
-0.00029423
-0.00029031
-0.00028617
-0.00028184
-0.00027732
-0.00027264
-0.00026782
-0.00026287
-0.00025781
-0.00025264
-0.00024738
-0.00024201
-0.00023651
-0.00023087
-0.00022513
-0.00021930
-0.00021342
-0.00020753
-0.00020162
-0.00019569
-0.00018973
-0.00018372
-0.00017766
-0.00017156
-0.00016544
-0.00015931
-0.00015319
-0.00014708
-0.00014100
-0.00013497
-0.00012901
-0.00012313
-0.00011733
-0.00011160
-0.00010595
-0.00010037
-0.00009487
-0.00008944
-0.00008409
-0.00007884
-0.00007373
-0.00006877
-0.00006397
-0.00005937
-0.00005496
-0.00005075
-0.00004673
-0.00004289
-0.00003919
-0.00003561
-0.00003211
-0.00002867
-0.00002526
-0.00002183
-0.00001835
-0.00001482
-0.00001121
-0.00000753
-0.00000379
0.00000002
0.00000387
0.00000776
0.00001169
0.00001566
0.00001968
0.00002375
0.00002785
0.00003198
0.00003610
0.00004019
0.00004425
0.00004827
0.00005224
0.00005617
0.00006005
0.00006388
0.00006763
0.00007129
0.00007487
0.00007838
0.00008180
0.00008514
0.00008840
0.00009155
0.00009459
0.00009750
0.00010026
0.00010285
0.00010527
0.00010753
0.00010965
0.00011163
0.00011349
0.00011522
0.00011681
0.00011827
0.00011960
0.00012078
0.00012183
0.00012275
0.00012353
0.00012416
0.00012462
0.00012490
0.00012497
0.00012481
0.00012442
0.00012379
0.00012290
0.00012174
0.00012030
0.00011855
0.00011646
0.00011403
0.00011122
0.00010806
0.00010453
0.00010067
0.00009649
0.00009202
0.00008726
0.00008224
0.00007697
0.00007146
0.00006570
0.00005970
0.00005346
0.00004699
0.00004032
0.00003348
0.00002649
0.00001937
0.00001214
0.00000481
-0.00000262
-0.00001015
-0.00001777
-0.00002548
-0.00003327
-0.00004118
-0.00004924
-0.00005747
-0.00006587
-0.00007445
-0.00008320
-0.00009210
-0.00010112
-0.00011025
-0.00011949
-0.00012883
-0.00013823
-0.00014769
-0.00015719
-0.00016671
-0.00017624
-0.00018576
-0.00019527
-0.00020474
-0.00021415
-0.00022350
-0.00023278
-0.00024199
-0.00025111
-0.00026012
-0.00026901
-0.00027776
-0.00028637
-0.00029482
-0.00030311
-0.00031123
-0.00031921
-0.00032703
-0.00033470
-0.00034220
-0.00034953
-0.00035670
-0.00036373
-0.00037064
-0.00037744
-0.00038413
-0.00039069
-0.00039712
-0.00040339
-0.00040947
-0.00041539
-0.00042116
-0.00042681
-0.00043235
-0.00043780
-0.00044315
-0.00044838
-0.00045344
-0.00045829
-0.00046292
-0.00046731
-0.00047146
-0.00047536
-0.00047901
-0.00048240
-0.00048554
-0.00048844
-0.00049110
-0.00049358
-0.00049592
-0.00049817
-0.00050035
-0.00050250
-0.00050465
-0.00050681
-0.00050898
-0.00051115
-0.00051332
-0.00051547
-0.00051756
-0.00051958
-0.00052150
-0.00052327
-0.00052490
-0.00052638
-0.00052771
-0.00052887
-0.00052986
-0.00053067
-0.00053127
-0.00053166
-0.00053183
-0.00053178
-0.00053150
-0.00053101
-0.00053030
-0.00052935
-0.00052816
-0.00052668
-0.00052492
-0.00052287
-0.00052056
-0.00051802
-0.00051528
-0.00051236
-0.00050929
-0.00050606
-0.00050268
-0.00049918
-0.00049554
-0.00049179
-0.00048792
-0.00048392
-0.00047979
-0.00047556
-0.00047123
-0.00046680
-0.00046228
-0.00045766
-0.00045296
-0.00044820
-0.00044341
-0.00043860
-0.00043378
-0.00042894
-0.00042409
-0.00041924
-0.00041441
-0.00040960
-0.00040481
-0.00040006
-0.00039537
-0.00039079
-0.00038634
-0.00038204
-0.00037791
-0.00037397
-0.00037022
-0.00036669
-0.00036340
-0.00036038
-0.00035764
-0.00035520
-0.00035307
-0.00035124
-0.00034970
-0.00034842
-0.00034736
-0.00034649
-0.00034579
-0.00034524
-0.00034481
-0.00034451
-0.00034432
-0.00034424
-0.00034425
-0.00034435
-0.00034453
-0.00034477
-0.00034506
-0.00034540
-0.00034578
-0.00034620
-0.00034664
-0.00034710
-0.00034759
-0.00034810
-0.00034864
-0.00034921
-0.00034984
-0.00035056
-0.00035137
-0.00035229
-0.00035331
-0.00035442
-0.00035561
-0.00035687
-0.00035820
-0.00035960
-0.00036105
-0.00036255
-0.00036410
-0.00036570
-0.00036734
-0.00036904
-0.00037080
-0.00037263
-0.00037454
-0.00037652
-0.00037855
-0.00038060
-0.00038263
-0.00038460
-0.00038649
-0.00038827
-0.00038989
-0.00039133
-0.00039256
-0.00039357
-0.00039437
-0.00039497
-0.00039540
-0.00039568
-0.00039583
-0.00039585
-0.00039576
-0.00039556
-0.00039526
-0.00039486
-0.00039434
-0.00039369
-0.00039291
-0.00039201
-0.00039098
-0.00038979
-0.00038842
-0.00038682
-0.00038499
-0.00038291
-0.00038063
-0.00037815
-0.00037547
-0.00037260
-0.00036954
-0.00036626
-0.00036276
-0.00035901
-0.00035503
-0.00035082
-0.00034637
-0.00034171
-0.00033682
-0.00033172
-0.00032642
-0.00032094
-0.00031529
-0.00030948
-0.00030353
-0.00029747
-0.00029131
-0.00028507
-0.00027876
-0.00027238
-0.00026594
-0.00025942
-0.00025283
-0.00024615
-0.00023936
-0.00023245
-0.00022542
-0.00021827
-0.00021103
-0.00020372
-0.00019638
-0.00018901
-0.00018158
-0.00017409
-0.00016650
-0.00015881
-0.00015103
-0.00014315
-0.00013518
-0.00012716
-0.00011907
-0.00011093
-0.00010275
-0.00009455
-0.00008633
-0.00007814
-0.00006997
-0.00006186
-0.00005381
-0.00004582
-0.00003792
-0.00003011
-0.00002241
-0.00001481
-0.00000730
0.00000012
0.00000743
0.00001463
0.00002172
0.00002870
0.00003556
0.00004231
0.00004894
0.00005543
0.00006178
0.00006798
0.00007403
0.00007994
0.00008574
0.00009147
0.00009716
0.00010286
0.00010863
0.00011454
0.00012061
0.00012687
0.00013333
0.00013998
0.00014683
0.00015386
0.00016105
0.00016836
0.00017576
0.00018324
0.00019076
0.00019834
0.00020595
0.00021361
0.00022131
0.00022908
0.00023693
0.00024489
0.00025299
0.00026126
0.00026973
0.00027842
0.00028734
0.00029653
0.00030600
0.00031579
0.00032592
0.00033642
0.00034730
0.00035859
0.00037034
0.00038256
0.00039524
0.00040839
0.00042199
0.00043602
0.00045049
0.00046539
0.00048072
0.00049648
0.00051266
0.00052925
0.00054621
0.00056354
0.00058122
0.00059921
0.00061748
0.00063600
0.00065475
0.00067370
0.00069286
0.00071222
0.00073182
0.00075165
0.00077172
0.00079205
0.00081265
0.00083357
0.00085484
0.00087649
0.00089853
0.00092098
0.00094384
0.00096711
0.00099081
0.00101492
0.00103946
0.00106442
0.00108980
0.00111558
0.00114174
0.00116824
0.00119505
0.00122213
0.00124944
0.00127697
0.00130468
0.00133256
0.00136056
0.00138869
0.00141692
0.00144524
0.00147364
0.00150210
0.00153062
0.00155921
0.00158788
0.00161663
0.00164541
0.00167420
0.00170294
0.00173161
0.00176021
0.00178875
0.00181721
0.00184561
0.00187393
0.00190220
0.00193042
0.00195859
0.00198670
0.00201474
0.00204270
0.00207055
0.00209825
0.00212577
0.00215306
0.00218010
0.00220685
0.00223326
0.00225928
0.00228485
0.00230992
0.00233446
0.00235843
0.00238181
0.00240460
0.00242682
0.00244849
0.00246959
0.00249013
0.00251011
0.00252957
0.00254853
0.00256702
0.00258504
0.00260260
0.00261968
0.00263629
0.00265244
0.00266813
0.00268336
0.00269817
0.00271256
0.00272657
0.00274019
0.00275344
0.00276632
0.00277885
0.00279106
0.00280294
0.00281448
0.00282567
0.00283649
0.00284690
0.00285692
0.00286652
0.00287572
0.00288451
0.00289290
0.00290090
0.00290854
0.00291581
0.00292273
0.00292930
0.00293552
0.00294139
0.00294691
0.00295210
0.00295697
0.00296151
0.00296575
0.00296968
0.00297330
0.00297662
0.00297961
0.00298227
0.00298459
0.00298655
0.00298816
0.00298940
0.00299027
0.00299073
0.00299074
0.00299029
0.00298936
0.00298793
0.00298600
0.00298359
0.00298069
0.00297730
0.00297340
0.00296901
0.00296416
0.00295887
0.00295316
0.00294704
0.00294055
0.00293371
0.00292656
0.00291917
0.00291154
0.00290368
0.00289560
0.00288732
0.00287885
0.00287023
0.00286147
0.00285261
0.00284365
0.00283459
0.00282544
0.00281617
0.00280677
0.00279720
0.00278744
0.00277745
0.00276719
0.00275665
0.00274582
0.00273469
0.00272325
0.00271149
0.00269939
0.00268695
0.00267419
0.00266114
0.00264784
0.00263432
0.00262061
0.00260673
0.00259271
0.00257858
0.00256435
0.00255007
0.00253574
0.00252138
0.00250700
0.00249260
0.00247819
0.00246378
0.00244938
0.00243500
0.00242062
0.00240622
0.00239180
0.00237734
0.00236285
0.00234831
0.00233370
0.00231899
0.00230418
0.00228925
0.00227421
0.00225903
0.00224369
0.00222817
0.00221244
0.00219648
0.00218029
0.00216386
0.00214719
0.00213027
0.00211311
0.00209572
0.00207813
0.00206038
0.00204255
0.00202464
0.00200666
0.00198861
0.00197046
0.00195220
0.00193387
0.00191546
0.00189702
0.00187857
0.00186013
0.00184169
0.00182325
0.00180478
0.00178628
0.00176771
0.00174908
0.00173034
0.00171151
0.00169256
0.00167350
0.00165431
0.00163500
0.00161555
0.00159597
0.00157624
0.00155635
0.00153630
0.00151610
0.00149578
0.00147531
0.00145472
0.00143400
0.00141318
0.00139230
0.00137138
0.00135044
0.00132947
0.00130851
0.00128758
0.00126668
0.00124584
0.00122503
0.00120427
0.00118352
0.00116278
0.00114205
0.00112128
0.00110046
0.00107953
0.00105845
0.00103718
0.00101571
0.00099400
0.00097205
0.00094984
0.00092738
0.00090466
0.00088170
0.00085850
0.00083509
0.00081151
0.00078780
0.00076397
0.00074004
0.00071604
0.00069199
0.00066793
0.00064390
0.00061990
0.00059595
0.00057207
0.00054824
0.00052448
0.00050079
0.00047717
0.00045363
0.00043015
0.00040672
0.00038334
0.00036002
0.00033673
0.00031347
0.00029021
0.00026693
0.00024362
0.00022024
0.00019681
0.00017333
0.00014979
0.00012621
0.00010255
0.00007884
0.00005507
0.00003126
0.00000742
-0.00001643
-0.00004031
-0.00006421
-0.00008811
-0.00011198
-0.00013581
-0.00015957
-0.00018326
-0.00020686
-0.00023036
-0.00025375
-0.00027703
-0.00030021
-0.00032328
-0.00034624
-0.00036907
-0.00039178
-0.00041438
-0.00043689
-0.00045937
-0.00048186
-0.00050441
-0.00052704
-0.00054975
-0.00057255
-0.00059545
-0.00061844
-0.00064153
-0.00066473
-0.00068805
-0.00071148
-0.00073502
-0.00075868
-0.00078246
-0.00080633
-0.00083028
-0.00085427
-0.00087828
-0.00090226
-0.00092618
-0.00095000
-0.00097368
-0.00099718
-0.00102046
-0.00104346
-0.00106615
-0.00108852
-0.00111058
-0.00113234
-0.00115381
-0.00117500
-0.00119594
-0.00121667
-0.00123724
-0.00125769
-0.00127805
-0.00129833
-0.00131855
-0.00133871
-0.00135881
-0.00137888
-0.00139889
-0.00141885
-0.00143873
-0.00145849
-0.00147814
-0.00149764
-0.00151701
-0.00153624
-0.00155531
-0.00157419
-0.00159285
-0.00161125
-0.00162938
-0.00164722
-0.00166475
-0.00168196
-0.00169885
-0.00171541
-0.00173162
-0.00174748
-0.00176296
-0.00177808
-0.00179283
-0.00180722
-0.00182128
-0.00183502
-0.00184847
-0.00186165
-0.00187458
-0.00188729
-0.00189981
-0.00191216
-0.00192436
-0.00193640
-0.00194827
-0.00195994
-0.00197142
-0.00198267
-0.00199368
-0.00200444
-0.00201492
-0.00202508
-0.00203488
-0.00204429
-0.00205328
-0.00206187
-0.00207007
-0.00207791
-0.00208538
-0.00209250
-0.00209927
-0.00210569
-0.00211175
-0.00211746
-0.00212283
-0.00212785
-0.00213255
-0.00213695
-0.00214107
-0.00214491
-0.00214850
-0.00215183
-0.00215491
-0.00215776
-0.00216039
-0.00216281
-0.00216502
-0.00216705
-0.00216890
-0.00217059
-0.00217212
-0.00217348
-0.00217468
-0.00217571
-0.00217655
-0.00217718
-0.00217757
-0.00217769
-0.00217752
-0.00217707
-0.00217633
-0.00217529
-0.00217394
-0.00217229
-0.00217034
-0.00216809
-0.00216554
-0.00216271
-0.00215962
-0.00215628
-0.00215272
-0.00214896
-0.00214503
-0.00214093
-0.00213672
-0.00213240
-0.00212801
-0.00212356
-0.00211908
-0.00211458
-0.00211006
-0.00210551
-0.00210093
-0.00209633
-0.00209170
-0.00208701
-0.00208223
-0.00207737
-0.00207241
-0.00206739
-0.00206231
-0.00205719
-0.00205201
-0.00204676
-0.00204143
-0.00203602
-0.00203053
-0.00202496
-0.00201931
-0.00201357
-0.00200773
-0.00200178
-0.00199574
-0.00198960
-0.00198342
-0.00197719
-0.00197096
-0.00196474
-0.00195856
-0.00195244
-0.00194641
-0.00194047
-0.00193465
-0.00192897
-0.00192342
-0.00191801
-0.00191271
-0.00190752
-0.00190245
-0.00189748
-0.00189259
-0.00188778
-0.00188305
-0.00187843
-0.00187394
-0.00186956
-0.00186530
-0.00186115
-0.00185710
-0.00185314
-0.00184927
-0.00184546
-0.00184173
-0.00183806
-0.00183443
-0.00183085
-0.00182731
-0.00182381
-0.00182037
-0.00181701
-0.00181374
-0.00181055
-0.00180744
-0.00180441
-0.00180146
-0.00179859
-0.00179579
-0.00179305
-0.00179035
-0.00178766
-0.00178497
-0.00178225
-0.00177948
-0.00177664
-0.00177371
-0.00177066
-0.00176745
-0.00176405
-0.00176045
-0.00175661
-0.00175253
-0.00174817
-0.00174351
-0.00173854
-0.00173324
-0.00172761
-0.00172162
-0.00171528
-0.00170857
-0.00170150
-0.00169410
-0.00168641
-0.00167846
-0.00167031
-0.00166198
-0.00165349
-0.00164486
-0.00163610
-0.00162722
-0.00161823
-0.00160913
-0.00159991
-0.00159055
-0.00158102
-0.00157133
-0.00156146
-0.00155141
-0.00154118
-0.00153078
-0.00152021
-0.00150947
-0.00149854
-0.00148741
-0.00147606
-0.00146449
-0.00145271
-0.00144073
-0.00142856
-0.00141621
-0.00140367
-0.00139094
-0.00137800
-0.00136482
-0.00135138
-0.00133770
-0.00132380
-0.00130969
-0.00129538
-0.00128089
-0.00126622
-0.00125138
-0.00123639
-0.00122127
-0.00120604
-0.00119075
-0.00117539
-0.00115996
-0.00114446
-0.00112888
-0.00111320
-0.00109742
-0.00108154
-0.00106557
-0.00104952
-0.00103339
-0.00101716
-0.00100081
-0.00098432
-0.00096770
-0.00095095
-0.00093412
-0.00091721
-0.00090023
-0.00088319
-0.00086609
-0.00084892
-0.00083170
-0.00081445
-0.00079718
-0.00077992
-0.00076266
-0.00074543
-0.00072824
-0.00071111
-0.00069405
-0.00067708
-0.00066019
-0.00064339
-0.00062667
-0.00061004
-0.00059347
-0.00057696
-0.00056050
-0.00054409
-0.00052773
-0.00051144
-0.00049524
-0.00047911
-0.00046305
-0.00044705
-0.00043108
-0.00041515
-0.00039928
-0.00038347
-0.00036773
-0.00035206
-0.00033645
-0.00032092
-0.00030548
-0.00029015
-0.00027495
-0.00025992
-0.00024510
-0.00023053
-0.00021624
-0.00020223
-0.00018853
-0.00017514
-0.00016205
-0.00014926
-0.00013675
-0.00012448
-0.00011242
-0.00010054
-0.00008881
-0.00007722
-0.00006576
-0.00005441
-0.00004312
-0.00003187
-0.00002064
-0.00000938
0.00000190
0.00001322
0.00002461
0.00003609
0.00004766
0.00005934
0.00007113
0.00008306
0.00009516
0.00010745
0.00011994
0.00013262
0.00014549
0.00015854
0.00017175
0.00018510
0.00019859
0.00021216
0.00022581
0.00023952
0.00025327
0.00026705
0.00028086
0.00029467
0.00030850
0.00032233
0.00033618
0.00035007
0.00036404
0.00037810
0.00039225
0.00040649
0.00042085
0.00043533
0.00044995
0.00046471
0.00047960
0.00049464
0.00050984
0.00052518
0.00054066
0.00055629
0.00057206
0.00058796
0.00060396
0.00062003
0.00063614
0.00065226
0.00066836
0.00068443
0.00070043
0.00071636
0.00073219
0.00074790
0.00076348
0.00077891
0.00079421
0.00080939
0.00082446
0.00083943
0.00085428
0.00086901
0.00088361
0.00089806
0.00091231
0.00092635
0.00094016
0.00095374
0.00096710
0.00098022
0.00099312
0.00100582
0.00101834
0.00103071
0.00104292
0.00105497
0.00106685
0.00107854
0.00109001
0.00110125
0.00111223
0.00112293
0.00113331
0.00114335
0.00115303
0.00116235
0.00117128
0.00117981
0.00118792
0.00119561
0.00120290
0.00120979
0.00121631
0.00122250
0.00122835
0.00123389
0.00123909
0.00124390
0.00124829
0.00125223
0.00125572
0.00125876
0.00126138
0.00126358
0.00126537
0.00126672
0.00126764
0.00126812
0.00126815
0.00126774
0.00126688
0.00126555
0.00126373
0.00126137
0.00125847
0.00125500
0.00125096
0.00124632
0.00124109
0.00123526
0.00122884
0.00122185
0.00121433
0.00120627
0.00119771
0.00118865
0.00117910
0.00116908
0.00115861
0.00114772
0.00113642
0.00112478
0.00111281
0.00110052
0.00108791
0.00107500
0.00106180
0.00104831
0.00103454
0.00102049
0.00100615
0.00099153
0.00097667
0.00096156
0.00094622
0.00093066
0.00091489
0.00089892
0.00088275
0.00086639
0.00084985
0.00083311
0.00081618
0.00079907
0.00078178
0.00076433
0.00074671
0.00072894
0.00071102
0.00069295
0.00067476
0.00065646
0.00063810
0.00061971
0.00060135
0.00058307
0.00056492
0.00054694
0.00052916
0.00051159
0.00049425
0.00047717
0.00046035
0.00044382
0.00042757
0.00041160
0.00039590
0.00038046
0.00036530
0.00035039
0.00033572
0.00032125
0.00030694
0.00029276
0.00027867
0.00026466
0.00025076
0.00023698
0.00022337
0.00020993
0.00019666
0.00018358
0.00017071
0.00015805
0.00014564
0.00013351
0.00012167
0.00011015
0.00009898
0.00008817
0.00007774
0.00006771
0.00005809
0.00004892
0.00004019
0.00003191
0.00002408
0.00001671
0.00000978
0.00000329
-0.00000278
-0.00000845
-0.00001376
-0.00001873
-0.00002342
-0.00002787
-0.00003212
-0.00003621
-0.00004016
-0.00004399
-0.00004773
-0.00005137
-0.00005493
-0.00005842
-0.00006186
-0.00006525
-0.00006855
-0.00007175
-0.00007482
-0.00007779
-0.00008068
-0.00008353
-0.00008637
-0.00008919
-0.00009201
-0.00009483
-0.00009762
-0.00010041
-0.00010320
-0.00010598
-0.00010873
-0.00011145
-0.00011412
-0.00011671
-0.00011920
-0.00012157
-0.00012379
-0.00012586
-0.00012776
-0.00012954
-0.00013122
-0.00013283
-0.00013440
-0.00013592
-0.00013742
-0.00013889
-0.00014035
-0.00014181
-0.00014326
-0.00014468
-0.00014606
-0.00014738
-0.00014863
-0.00014979
-0.00015083
-0.00015168
-0.00015230
-0.00015264
-0.00015268
-0.00015239
-0.00015176
-0.00015079
-0.00014947
-0.00014780
-0.00014575
-0.00014332
-0.00014050
-0.00013728
-0.00013370
-0.00012976
-0.00012549
-0.00012090
-0.00011598
-0.00011076
-0.00010526
-0.00009949
-0.00009345
-0.00008714
-0.00008056
-0.00007374
-0.00006667
-0.00005935
-0.00005178
-0.00004394
-0.00003581
-0.00002738
-0.00001866
-0.00000967
-0.00000039
0.00000917
0.00001903
0.00002919
0.00003966
0.00005042
0.00006145
0.00007276
0.00008435
0.00009621
0.00010836
0.00012080
0.00013351
0.00014648
0.00015968
0.00017309
0.00018669
0.00020044
0.00021433
0.00022832
0.00024240
0.00025653
0.00027071
0.00028492
0.00029914
0.00031335
0.00032753
0.00034171
0.00035589
0.00037007
0.00038427
0.00039849
0.00041275
0.00042706
0.00044142
0.00045583
0.00047026
0.00048473
0.00049926
0.00051387
0.00052858
0.00054338
0.00055826
0.00057322
0.00058825
0.00060336
0.00061856
0.00063386
0.00064924
0.00066463
0.00068000
0.00069528
0.00071045
0.00072548
0.00074036
0.00075505
0.00076954
0.00078379
0.00079778
0.00081149
0.00082491
0.00083804
0.00085086
0.00086338
0.00087558
0.00088746
0.00089898
0.00091017
0.00092101
0.00093153
0.00094171
0.00095155
0.00096106
0.00097022
0.00097904
0.00098750
0.00099560
0.00100335
0.00101075
0.00101783
0.00102457
0.00103099
0.00103707
0.00104278
0.00104812
0.00105308
0.00105763
0.00106181
0.00106561
0.00106905
0.00107212
0.00107485
0.00107725
0.00107937
0.00108125
0.00108291
0.00108441
0.00108579
0.00108704
0.00108817
0.00108915
0.00108996
0.00109063
0.00109118
0.00109162
0.00109199
0.00109229
0.00109253
0.00109270
0.00109281
0.00109285
0.00109285
0.00109279
0.00109266
0.00109246
0.00109218
0.00109183
0.00109143
0.00109098
0.00109046
0.00108986
0.00108916
0.00108833
0.00108735
0.00108621
0.00108490
0.00108345
0.00108184
0.00108012
0.00107828
0.00107635
0.00107434
0.00107223
0.00107003
0.00106773
0.00106532
0.00106283
0.00106025
0.00105757
0.00105481
0.00105194
0.00104897
0.00104587
0.00104265
0.00103928
0.00103575
0.00103206
0.00102821
0.00102421
0.00102006
0.00101574
0.00101123
0.00100649
0.00100149
0.00099621
0.00099060
0.00098464
0.00097830
0.00097156
0.00096440
0.00095682
0.00094882
0.00094040
0.00093156
0.00092231
0.00091262
0.00090251
0.00089198
0.00088107
0.00086981
0.00085822
0.00084633
0.00083417
0.00082179
0.00080920
0.00079641
0.00078345
0.00077030
0.00075698
0.00074349
0.00072983
0.00071600
0.00070200
0.00068780
0.00067340
0.00065881
0.00064404
0.00062907
0.00061391
0.00059855
0.00058302
0.00056731
0.00055144
0.00053541
0.00051925
0.00050300
0.00048668
0.00047033
0.00045396
0.00043761
0.00042130
0.00040504
0.00038886
0.00037276
0.00035679
0.00034095
0.00032527
0.00030978
0.00029449
0.00027941
0.00026454
0.00024990
0.00023550
0.00022132
0.00020733
0.00019348
0.00017975
0.00016610
0.00015253
0.00013904
0.00012565
0.00011235
0.00009917
0.00008610
0.00007316
0.00006037
0.00004780
0.00003546
0.00002340
0.00001161
0.00000012
-0.00001110
-0.00002203
-0.00003268
-0.00004302
-0.00005306
-0.00006281
-0.00007227
-0.00008145
-0.00009038
-0.00009906
-0.00010748
-0.00011564
-0.00012355
-0.00013120
-0.00013858
-0.00014572
-0.00015263
-0.00015936
-0.00016594
-0.00017241
-0.00017883
-0.00018523
-0.00019164
-0.00019809
-0.00020463
-0.00021128
-0.00021807
-0.00022500
-0.00023205
-0.00023922
-0.00024650
-0.00025389
-0.00026137
-0.00026893
-0.00027657
-0.00028424
-0.00029192
-0.00029956
-0.00030713
-0.00031460
-0.00032194
-0.00032913
-0.00033617
-0.00034305
-0.00034978
-0.00035636
-0.00036278
-0.00036904
-0.00037515
-0.00038113
-0.00038700
-0.00039278
-0.00039848
-0.00040414
-0.00040974
-0.00041530
-0.00042082
-0.00042632
-0.00043182
-0.00043727
-0.00044269
-0.00044804
-0.00045334
-0.00045861
-0.00046384
-0.00046906
-0.00047427
-0.00047948
-0.00048467
-0.00048983
-0.00049493
-0.00049998
-0.00050498
-0.00050993
-0.00051481
-0.00051961
-0.00052434
-0.00052901
-0.00053361
-0.00053816
-0.00054269
-0.00054720
-0.00055170
-0.00055619
-0.00056070
-0.00056523
-0.00056978
-0.00057437
-0.00057900
-0.00058372
-0.00058852
-0.00059342
-0.00059841
-0.00060350
-0.00060864
-0.00061382
-0.00061902
-0.00062420
-0.00062935
-0.00063446
-0.00063952
-0.00064452
-0.00064946
-0.00065430
-0.00065899
-0.00066352
-0.00066784
-0.00067196
-0.00067588
-0.00067960
-0.00068312
-0.00068646
-0.00068962
-0.00069259
-0.00069536
-0.00069793
-0.00070031
-0.00070252
-0.00070456
-0.00070644
-0.00070816
-0.00070974
-0.00071118
-0.00071246
-0.00071360
-0.00071460
-0.00071547
-0.00071622
-0.00071684
-0.00071731
-0.00071760
-0.00071772
-0.00071766
-0.00071742
-0.00071700
-0.00071644
-0.00071574
-0.00071491
-0.00071396
-0.00071287
-0.00071165
-0.00071029
-0.00070879
-0.00070716
-0.00070542
-0.00070358
-0.00070163
-0.00069960
-0.00069751
-0.00069536
-0.00069316
-0.00069090
-0.00068858
-0.00068618
-0.00068370
-0.00068113
-0.00067847
-0.00067576
-0.00067301
-0.00067027
-0.00066756
-0.00066490
-0.00066228
-0.00065970
-0.00065717
-0.00065469
-0.00065228
-0.00064996
-0.00064777
-0.00064573
-0.00064387
-0.00064219
-0.00064071
-0.00063943
-0.00063833
-0.00063741
-0.00063666
-0.00063606
-0.00063560
-0.00063524
-0.00063497
-0.00063477
-0.00063463
-0.00063458
-0.00063463
-0.00063482
-0.00063516
-0.00063567
-0.00063637
-0.00063730
-0.00063846
-0.00063987
-0.00064155
-0.00064349
-0.00064568
-0.00064809
-0.00065070
-0.00065348
-0.00065643
-0.00065956
-0.00066288
-0.00066640
-0.00067017
-0.00067419
-0.00067847
-0.00068302
-0.00068781
-0.00069284
-0.00069810
-0.00070360
-0.00070934
-0.00071532
-0.00072155
-0.00072801
-0.00073472
-0.00074168
-0.00074894
-0.00075651
-0.00076444
-0.00077272
-0.00078137
-0.00079041
-0.00079986
-0.00080975
-0.00082012
-0.00083098
-0.00084236
-0.00085425
-0.00086663
-0.00087950
-0.00089282
-0.00090657
-0.00092071
-0.00093520
-0.00094997
-0.00096498
-0.00098017
-0.00099551
-0.00101098
-0.00102656
-0.00104224
-0.00105803
-0.00107392
-0.00108990
-0.00110598
-0.00112213
-0.00113836
-0.00115467
-0.00117108
-0.00118761
-0.00120429
-0.00122111
-0.00123806
-0.00125509
-0.00127220
-0.00128939
-0.00130665
-0.00132399
-0.00134140
-0.00135891
-0.00137653
-0.00139429
-0.00141220
-0.00143030
-0.00144856
-0.00146702
-0.00148567
-0.00150452
-0.00152358
-0.00154285
-0.00156233
-0.00158201
-0.00160187
-0.00162190
-0.00164206
-0.00166233
-0.00168268
-0.00170310
-0.00172358
-0.00174410
-0.00176465
-0.00178521
-0.00180577
-0.00182631
-0.00184682
-0.00186730
-0.00188773
-0.00190812
-0.00192847
-0.00194878
-0.00196907
-0.00198932
-0.00200953
-0.00202967
-0.00204972
-0.00206965
-0.00208946
-0.00210914
-0.00212870
-0.00214814
-0.00216746
-0.00218664
-0.00220565
-0.00222446
-0.00224306
-0.00226145
-0.00227961
-0.00229753
-0.00231516
-0.00233249
-0.00234949
-0.00236614
-0.00238243
-0.00239834
-0.00241386
-0.00242897
-0.00244367
-0.00245798
-0.00247192
-0.00248547
-0.00249866
-0.00251149
-0.00252394
-0.00253601
-0.00254768
-0.00255894
-0.00256977
-0.00258019
-0.00259018
-0.00259975
-0.00260888
-0.00261756
-0.00262577
-0.00263346
-0.00264060
-0.00264715
-0.00265305
-0.00265826
-0.00266277
-0.00266657
-0.00266964
-0.00267196
-0.00267352
-0.00267430
-0.00267427
-0.00267341
-0.00267172
-0.00266920
-0.00266586
-0.00266169
-0.00265671
-0.00265092
-0.00264430
-0.00263681
-0.00262844
-0.00261920
-0.00260907
-0.00259806
-0.00258616
-0.00257338
-0.00255970
-0.00254514
-0.00252968
-0.00251331
-0.00249601
-0.00247777
-0.00245856
-0.00243838
-0.00241726
-0.00239523
-0.00237231
-0.00234853
-0.00232388
-0.00229833
-0.00227186
-0.00224446
-0.00221611
-0.00218682
-0.00215658
-0.00212538
-0.00209323
-0.00206014
-0.00202610
-0.00199113
-0.00195523
-0.00191845
-0.00188082
-0.00184237
-0.00180313
-0.00176317
-0.00172250
-0.00168112
-0.00163904
-0.00159625
-0.00155274
-0.00150850
-0.00146354
-0.00141786
-0.00137145
-0.00132435
-0.00127658
-0.00122820
-0.00117926
-0.00112979
-0.00107980
-0.00102931
-0.00097833
-0.00092687
-0.00087496
-0.00082263
-0.00076991
-0.00071682
-0.00066335
-0.00060949
-0.00055526
-0.00050066
-0.00044574
-0.00039053
-0.00033506
-0.00027937
-0.00022350
-0.00016749
-0.00011140
-0.00005527
0.00000086
0.00005698
0.00011306
0.00016909
0.00022507
0.00028099
0.00033686
0.00039269
0.00044850
0.00050429
0.00056006
0.00061580
0.00067150
0.00072713
0.00078267
0.00083810
0.00089341
0.00094860
0.00100365
0.00105857
0.00111334
0.00116795
0.00122238
0.00127664
0.00133072
0.00138460
0.00143826
0.00149167
0.00154483
0.00159771
0.00165031
0.00170261
0.00175460
0.00180627
0.00185763
0.00190864
0.00195928
0.00200955
0.00205942
0.00210890
0.00215798
0.00220665
0.00225491
0.00230274
0.00235015
0.00239714
0.00244375
0.00248997
0.00253583
0.00258134
0.00262651
0.00267133
0.00271580
0.00275989
0.00280360
0.00284689
0.00288975
0.00293218
0.00297416
0.00301567
0.00305668
0.00309717
0.00313709
0.00317643
0.00321514
0.00325321
0.00329061
0.00332736
0.00336344
0.00339887
0.00343365
0.00346779
0.00350129
0.00353412
0.00356627
0.00359771
0.00362841
0.00365839
0.00368766
0.00371628
0.00374425
0.00377160
0.00379831
0.00382439
0.00384982
0.00387459
0.00389871
0.00392218
0.00394502
0.00396724
0.00398884
0.00400982
0.00403017
0.00404990
0.00406900
0.00408746
0.00410525
0.00412234
0.00413871
0.00415433
0.00416915
0.00418314
0.00419626
0.00420849
0.00421983
0.00423026
0.00423980
0.00424845
0.00425622
0.00426309
0.00426906
0.00427413
0.00427831
0.00428158
0.00428396
0.00428545
0.00428608
0.00428587
0.00428485
0.00428305
0.00428048
0.00427717
0.00427315
0.00426843
0.00426302
0.00425691
0.00425007
0.00424249
0.00423418
0.00422513
0.00421532
0.00420473
0.00419334
0.00418114
0.00416811
0.00415425
0.00413953
0.00412393
0.00410743
0.00409001
0.00407167
0.00405239
0.00403220
0.00401110
0.00398916
0.00396642
0.00394293
0.00391875
0.00389388
0.00386836
0.00384219
0.00381539
0.00378797
0.00375993
0.00373128
0.00370204
0.00367219
0.00364176
0.00361073
0.00357909
0.00354685
0.00351399
0.00348051
0.00344641
0.00341169
0.00337636
0.00334046
0.00330403
0.00326709
0.00322969
0.00319185
0.00315358
0.00311493
0.00307590
0.00303652
0.00299679
0.00295672
0.00291628
0.00287549
0.00283432
0.00279281
0.00275098
0.00270886
0.00266648
0.00262386
0.00258103
0.00253805
0.00249494
0.00245175
0.00240853
0.00236531
0.00232211
0.00227892
0.00223573
0.00219254
0.00214935
0.00210618
0.00206303
0.00201992
0.00197684
0.00193377
0.00189073
0.00184770
0.00180469
0.00176170
0.00171877
0.00167589
0.00163309
0.00159040
0.00154786
0.00150550
0.00146333
0.00142132
0.00137947
0.00133780
0.00129632
0.00125505
0.00121400
0.00117319
0.00113262
0.00109231
0.00105226
0.00101249
0.00097301
0.00093383
0.00089495
0.00085640
0.00081819
0.00078032
0.00074280
0.00070561
0.00066875
0.00063221
0.00059599
0.00056008
0.00052447
0.00048915
0.00045411
0.00041936
0.00038490
0.00035074
0.00031688
0.00028334
0.00025012
0.00021722
0.00018462
0.00015234
0.00012037
0.00008875
0.00005749
0.00002661
-0.00000390
-0.00003402
-0.00006380
-0.00009325
-0.00012240
-0.00015127
-0.00017988
-0.00020826
-0.00023644
-0.00026443
-0.00029225
-0.00031988
-0.00034735
-0.00037464
-0.00040176
-0.00042870
-0.00045545
-0.00048203
-0.00050843
-0.00053466
-0.00056073
-0.00058662
-0.00061235
-0.00063790
-0.00066326
-0.00068843
-0.00071338
-0.00073809
-0.00076252
-0.00078667
-0.00081049
-0.00083399
-0.00085714
-0.00087992
-0.00090232
-0.00092431
-0.00094587
-0.00096698
-0.00098760
-0.00100774
-0.00102739
-0.00104658
-0.00106532
-0.00108362
-0.00110148
-0.00111890
-0.00113590
-0.00115249
-0.00116869
-0.00118453
-0.00120001
-0.00121516
-0.00122998
-0.00124446
-0.00125859
-0.00127238
-0.00128581
-0.00129890
-0.00131166
-0.00132412
-0.00133630
-0.00134821
-0.00135984
-0.00137119
-0.00138224
-0.00139297
-0.00140337
-0.00141343
-0.00142311
-0.00143238
-0.00144123
-0.00144962
-0.00145752
-0.00146492
-0.00147177
-0.00147804
-0.00148369
-0.00148872
-0.00149311
-0.00149683
-0.00149988
-0.00150228
-0.00150403
-0.00150515
-0.00150566
-0.00150558
-0.00150494
-0.00150373
-0.00150195
-0.00149959
-0.00149663
-0.00149307
-0.00148891
-0.00148418
-0.00147889
-0.00147307
-0.00146672
-0.00145984
-0.00145243
-0.00144450
-0.00143605
-0.00142709
-0.00141764
-0.00140771
-0.00139732
-0.00138647
-0.00137518
-0.00136347
-0.00135135
-0.00133885
-0.00132598
-0.00131278
-0.00129927
-0.00128550
-0.00127148
-0.00125724
-0.00124279
-0.00122815
-0.00121334
-0.00119836
-0.00118325
-0.00116802
-0.00115271
-0.00113730
-0.00112183
-0.00110631
-0.00109078
-0.00107526
-0.00105978
-0.00104435
-0.00102897
-0.00101366
-0.00099843
-0.00098329
-0.00096823
-0.00095327
-0.00093840
-0.00092363
-0.00090900
-0.00089452
-0.00088022
-0.00086612
-0.00085225
-0.00083860
-0.00082518
-0.00081198
-0.00079902
-0.00078634
-0.00077399
-0.00076200
-0.00075042
-0.00073927
-0.00072856
-0.00071827
-0.00070841
-0.00069896
-0.00068992
-0.00068128
-0.00067307
-0.00066529
-0.00065792
-0.00065095
-0.00064437
-0.00063817
-0.00063237
-0.00062696
-0.00062195
-0.00061732
-0.00061308
-0.00060920
-0.00060568
-0.00060251
-0.00059968
-0.00059721
-0.00059509
-0.00059331
-0.00059188
-0.00059080
-0.00059009
-0.00058976
-0.00058980
-0.00059025
-0.00059109
-0.00059236
-0.00059406
-0.00059619
-0.00059874
-0.00060170
-0.00060505
-0.00060878
-0.00061288
-0.00061735
-0.00062218
-0.00062733
-0.00063276
-0.00063843
-0.00064430
-0.00065033
-0.00065649
-0.00066274
-0.00066904
-0.00067535
-0.00068161
-0.00068782
-0.00069395
-0.00070000
-0.00070596
-0.00071184
-0.00071762
-0.00072334
-0.00072901
-0.00073466
-0.00074031
-0.00074596
-0.00075160
-0.00075723
-0.00076284
-0.00076844
-0.00077403
-0.00077959
-0.00078510
-0.00079055
-0.00079592
-0.00080121
-0.00080641
-0.00081155
-0.00081659
-0.00082150
-0.00082626
-0.00083081
-0.00083514
-0.00083924
-0.00084310
-0.00084669
-0.00084999
-0.00085298
-0.00085566
-0.00085802
-0.00086005
-0.00086175
-0.00086313
-0.00086418
-0.00086494
-0.00086544
-0.00086575
-0.00086589
-0.00086589
-0.00086578
-0.00086555
-0.00086522
-0.00086481
-0.00086433
-0.00086376
-0.00086313
-0.00086241
-0.00086162
-0.00086076
-0.00085982
-0.00085878
-0.00085764
-0.00085637
-0.00085494
-0.00085333
-0.00085152
-0.00084954
-0.00084736
-0.00084502
-0.00084251
-0.00083985
-0.00083703
-0.00083409
-0.00083101
-0.00082782
-0.00082451
-0.00082110
-0.00081761
-0.00081407
-0.00081053
-0.00080701
-0.00080354
-0.00080014
-0.00079684
-0.00079367
-0.00079064
-0.00078779
-0.00078511
-0.00078264
-0.00078038
-0.00077833
-0.00077652
-0.00077494
-0.00077361
-0.00077253
-0.00077170
-0.00077109
-0.00077066
-0.00077038
-0.00077022
-0.00077017
-0.00077021
-0.00077034
-0.00077058
-0.00077096
-0.00077150
-0.00077223
-0.00077315
-0.00077426
-0.00077555
-0.00077705
-0.00077877
-0.00078075
-0.00078301
-0.00078560
-0.00078853
-0.00079182
-0.00079546
-0.00079945
-0.00080379
-0.00080850
-0.00081356
-0.00081900
-0.00082483
-0.00083106
-0.00083769
-0.00084470
-0.00085210
-0.00085988
-0.00086803
-0.00087653
-0.00088536
-0.00089452
-0.00090397
-0.00091370
-0.00092366
-0.00093384
-0.00094422
-0.00095478
-0.00096550
-0.00097635
-0.00098732
-0.00099838
-0.00100950
-0.00102067
-0.00103190
-0.00104319
-0.00105455
-0.00106601
-0.00107757
-0.00108923
-0.00110098
-0.00111281
-0.00112471
-0.00113665
-0.00114861
-0.00116059
-0.00117257
-0.00118455
-0.00119653
-0.00120849
-0.00122043
-0.00123233
-0.00124417
-0.00125589
-0.00126746
-0.00127886
-0.00129008
-0.00130109
-0.00131190
-0.00132250
-0.00133290
-0.00134307
-0.00135300
-0.00136266
-0.00137201
-0.00138104
-0.00138974
-0.00139810
-0.00140611
-0.00141377
-0.00142108
-0.00142804
-0.00143468
-0.00144101
-0.00144704
-0.00145277
-0.00145819
-0.00146330
-0.00146808
-0.00147253
-0.00147664
-0.00148039
-0.00148379
-0.00148681
-0.00148944
-0.00149168
-0.00149351
-0.00149490
-0.00149581
-0.00149619
-0.00149601
-0.00149523
-0.00149385
-0.00149186
-0.00148927
-0.00148609
-0.00148232
-0.00147800
-0.00147313
-0.00146774
-0.00146185
-0.00145549
-0.00144869
-0.00144149
-0.00143390
-0.00142593
-0.00141758
-0.00140887
-0.00139979
-0.00139033
-0.00138052
-0.00137038
-0.00135994
-0.00134920
-0.00133815
-0.00132681
-0.00131517
-0.00130324
-0.00129107
-0.00127867
-0.00126608
-0.00125329
-0.00124029
-0.00122705
-0.00121354
-0.00119974
-0.00118565
-0.00117124
-0.00115652
-0.00114151
-0.00112621
-0.00111062
-0.00109477
-0.00107864
-0.00106227
-0.00104566
-0.00102885
-0.00101186
-0.00099473
-0.00097748
-0.00096010
-0.00094263
-0.00092507
-0.00090743
-0.00088972
-0.00087196
-0.00085415
-0.00083632
-0.00081846
-0.00080057
-0.00078265
-0.00076473
-0.00074685
-0.00072904
-0.00071133
-0.00069371
-0.00067618
-0.00065872
-0.00064131
-0.00062391
-0.00060652
-0.00058912
-0.00057173
-0.00055435
-0.00053697
-0.00051959
-0.00050223
-0.00048489
-0.00046761
-0.00045040
-0.00043327
-0.00041627
-0.00039943
-0.00038279
-0.00036637
-0.00035020
-0.00033429
-0.00031867
-0.00030334
-0.00028829
-0.00027352
-0.00025904
-0.00024485
-0.00023094
-0.00021727
-0.00020382
-0.00019055
-0.00017743
-0.00016444
-0.00015157
-0.00013879
-0.00012608
-0.00011341
-0.00010076
-0.00008811
-0.00007544
-0.00006277
-0.00005009
-0.00003742
-0.00002476
-0.00001215
0.00000038
0.00001278
0.00002503
0.00003710
0.00004897
0.00006063
0.00007206
0.00008326
0.00009423
0.00010497
0.00011550
0.00012581
0.00013592
0.00014583
0.00015556
0.00016510
0.00017447
0.00018369
0.00019280
0.00020183
0.00021082
0.00021979
0.00022877
0.00023780
0.00024688
0.00025603
0.00026524
0.00027453
0.00028388
0.00029330
0.00030279
0.00031233
0.00032192
0.00033154
0.00034116
0.00035078
0.00036039
0.00036997
0.00037952
0.00038900
0.00039839
0.00040766
0.00041682
0.00042588
0.00043483
0.00044365
0.00045236
0.00046094
0.00046940
0.00047775
0.00048599
0.00049413
0.00050219
0.00051018
0.00051810
0.00052595
0.00053372
0.00054142
0.00054907
0.00055668
0.00056428
0.00057189
0.00057952
0.00058717
0.00059485
0.00060252
0.00061018
0.00061778
0.00062528
0.00063265
0.00063985
0.00064685
0.00065364
0.00066022
0.00066658
0.00067271
0.00067859
0.00068423
0.00068962
0.00069479
0.00069976
0.00070456
0.00070920
0.00071367
0.00071796
0.00072206
0.00072593
0.00072955
0.00073292
0.00073601
0.00073884
0.00074139
0.00074365
0.00074564
0.00074733
0.00074873
0.00074983
0.00075061
0.00075106
0.00075115
0.00075085
0.00075016
0.00074905
0.00074749
0.00074547
0.00074296
0.00073996
0.00073645
0.00073244
0.00072789
0.00072282
0.00071721
0.00071107
0.00070439
0.00069719
0.00068946
0.00068123
0.00067252
0.00066340
0.00065391
0.00064411
0.00063406
0.00062378
0.00061330
0.00060262
0.00059177
0.00058077
0.00056960
0.00055828
0.00054679
0.00053514
0.00052332
0.00051132
0.00049913
0.00048672
0.00047408
0.00046120
0.00044810
0.00043481
0.00042134
0.00040773
0.00039398
0.00038012
0.00036615
0.00035208
0.00033792
0.00032367
0.00030938
0.00029506
0.00028075
0.00026650
0.00025235
0.00023835
0.00022452
0.00021091
0.00019751
0.00018436
0.00017147
0.00015885
0.00014654
0.00013457
0.00012296
0.00011177
0.00010101
0.00009069
0.00008081
0.00007134
0.00006227
0.00005358
0.00004526
0.00003731
0.00002974
0.00002256
0.00001577
0.00000938
0.00000339
-0.00000219
-0.00000734
-0.00001204
-0.00001629
-0.00002008
-0.00002341
-0.00002623
-0.00002854
-0.00003034
-0.00003160
-0.00003233
-0.00003251
-0.00003213
-0.00003118
-0.00002965
-0.00002756
-0.00002488
-0.00002160
-0.00001773
-0.00001325
-0.00000820
-0.00000261
0.00000350
0.00001008
0.00001708
0.00002448
0.00003223
0.00004029
0.00004862
0.00005719
0.00006597
0.00007493
0.00008402
0.00009324
0.00010255
0.00011193
0.00012137
0.00013085
0.00014037
0.00014992
0.00015949
0.00016908
0.00017867
0.00018824
0.00019780
0.00020736
0.00021694
0.00022656
0.00023622
0.00024593
0.00025571
0.00026556
0.00027549
0.00028547
0.00029548
0.00030549
0.00031546
0.00032536
0.00033515
0.00034476
0.00035417
0.00036333
0.00037219
0.00038072
0.00038892
0.00039679
0.00040433
0.00041154
0.00041842
0.00042496
0.00043115
0.00043697
0.00044242
0.00044750
0.00045220
0.00045650
0.00046041
0.00046391
0.00046700
0.00046969
0.00047201
0.00047397
0.00047558
0.00047686
0.00047782
0.00047848
0.00047884
0.00047892
0.00047870
0.00047815
0.00047726
0.00047599
0.00047433
0.00047225
0.00046975
0.00046679
0.00046337
0.00045945
0.00045504
0.00045010
0.00044463
0.00043864
0.00043215
0.00042517
0.00041773
0.00040989
0.00040167
0.00039309
0.00038417
0.00037490
0.00036531
0.00035542
0.00034527
0.00033488
0.00032430
0.00031354
0.00030261
0.00029153
0.00028028
0.00026888
0.00025730
0.00024556
0.00023369
0.00022169
0.00020958
0.00019736
0.00018501
0.00017256
0.00015999
0.00014731
0.00013450
0.00012155
0.00010844
0.00009516
0.00008171
0.00006807
0.00005426
0.00004027
0.00002612
0.00001181
-0.00000264
-0.00001721
-0.00003185
-0.00004654
-0.00006125
-0.00007596
-0.00009066
-0.00010533
-0.00011997
-0.00013456
-0.00014912
-0.00016364
-0.00017812
-0.00019254
-0.00020689
-0.00022118
-0.00023541
-0.00024959
-0.00026373
-0.00027784
-0.00029192
-0.00030595
-0.00031991
-0.00033376
-0.00034749
-0.00036109
-0.00037454
-0.00038782
-0.00040091
-0.00041379
-0.00042643
-0.00043884
-0.00045101
-0.00046292
-0.00047456
-0.00048587
-0.00049683
-0.00050739
-0.00051756
-0.00052734
-0.00053673
-0.00054572
-0.00055428
-0.00056239
-0.00057002
-0.00057715
-0.00058375
-0.00058981
-0.00059531
-0.00060023
-0.00060459
-0.00060842
-0.00061177
-0.00061466
-0.00061713
-0.00061918
-0.00062082
-0.00062208
-0.00062295
-0.00062345
-0.00062357
-0.00062331
-0.00062266
-0.00062162
-0.00062019
-0.00061835
-0.00061610
-0.00061344
-0.00061037
-0.00060687
-0.00060293
-0.00059855
-0.00059375
-0.00058851
-0.00058286
-0.00057678
-0.00057028
-0.00056337
-0.00055606
-0.00054839
-0.00054039
-0.00053208
-0.00052349
-0.00051461
-0.00050545
-0.00049603
-0.00048638
-0.00047654
-0.00046655
-0.00045643
-0.00044623
-0.00043597
-0.00042568
-0.00041538
-0.00040506
-0.00039476
-0.00038450
-0.00037428
-0.00036412
-0.00035404
-0.00034405
-0.00033414
-0.00032431
-0.00031455
-0.00030487
-0.00029525
-0.00028572
-0.00027629
-0.00026696
-0.00025777
-0.00024871
-0.00023983
-0.00023116
-0.00022271
-0.00021451
-0.00020656
-0.00019887
-0.00019148
-0.00018438
-0.00017761
-0.00017113
-0.00016496
-0.00015907
-0.00015348
-0.00014819
-0.00014322
-0.00013859
-0.00013433
-0.00013050
-0.00012710
-0.00012417
-0.00012168
-0.00011964
-0.00011802
-0.00011680
-0.00011597
-0.00011548
-0.00011530
-0.00011541
-0.00011576
-0.00011634
-0.00011710
-0.00011800
-0.00011899
-0.00012004
-0.00012114
-0.00012225
-0.00012339
-0.00012456
-0.00012578
-0.00012704
-0.00012834
-0.00012966
-0.00013102
-0.00013240
-0.00013384
-0.00013536
-0.00013700
-0.00013879
-0.00014075
-0.00014287
-0.00014515
-0.00014757
-0.00015014
-0.00015284
-0.00015565
-0.00015856
-0.00016159
-0.00016476
-0.00016810
-0.00017164
-0.00017539
-0.00017937
-0.00018356
-0.00018797
-0.00019258
-0.00019739
-0.00020238
-0.00020751
-0.00021277
-0.00021814
-0.00022359
-0.00022914
-0.00023477
-0.00024047
-0.00024624
-0.00025208
-0.00025800
-0.00026402
-0.00027014
-0.00027638
-0.00028273
-0.00028918
-0.00029573
-0.00030238
-0.00030913
-0.00031599
-0.00032293
-0.00032996
-0.00033706
-0.00034420
-0.00035136
-0.00035851
-0.00036560
-0.00037261
-0.00037952
-0.00038631
-0.00039297
-0.00039948
-0.00040582
-0.00041198
-0.00041793
-0.00042365
-0.00042913
-0.00043436
-0.00043930
-0.00044393
-0.00044825
-0.00045225
-0.00045593
-0.00045932
-0.00046242
-0.00046524
-0.00046777
-0.00047001
-0.00047195
-0.00047359
-0.00047494
-0.00047602
-0.00047684
-0.00047743
-0.00047777
-0.00047785
-0.00047767
-0.00047721
-0.00047647
-0.00047547
-0.00047420
-0.00047268
-0.00047093
-0.00046895
-0.00046676
-0.00046434
-0.00046171
-0.00045887
-0.00045583
-0.00045260
-0.00044923
-0.00044571
-0.00044209
-0.00043838
-0.00043463
-0.00043087
-0.00042715
-0.00042353
-0.00042002
-0.00041667
-0.00041349
-0.00041055
-0.00040785
-0.00040544
-0.00040334
-0.00040156
-0.00040009
-0.00039892
-0.00039805
-0.00039746
-0.00039717
-0.00039721
-0.00039760
-0.00039835
-0.00039947
-0.00040095
-0.00040280
-0.00040499
-0.00040753
-0.00041041
-0.00041362
-0.00041717
-0.00042104
-0.00042522
-0.00042971
-0.00043450
-0.00043957
-0.00044491
-0.00045055
-0.00045647
-0.00046267
-0.00046916
-0.00047592
-0.00048292
-0.00049016
-0.00049761
-0.00050526
-0.00051310
-0.00052112
-0.00052932
-0.00053767
-0.00054616
-0.00055475
-0.00056343
-0.00057217
-0.00058095
-0.00058975
-0.00059852
-0.00060723
-0.00061586
-0.00062436
-0.00063273
-0.00064093
-0.00064894
-0.00065672
-0.00066426
-0.00067154
-0.00067855
-0.00068530
-0.00069179
-0.00069801
-0.00070401
-0.00070979
-0.00071538
-0.00072077
-0.00072597
-0.00073095
-0.00073572
-0.00074027
-0.00074459
-0.00074867
-0.00075251
-0.00075613
-0.00075954
-0.00076276
-0.00076578
-0.00076865
-0.00077138
-0.00077393
-0.00077627
-0.00077835
-0.00078016
-0.00078168
-0.00078290
-0.00078380
-0.00078434
-0.00078449
-0.00078421
-0.00078349
-0.00078231
-0.00078066
-0.00077856
-0.00077600
-0.00077302
-0.00076961
-0.00076578
-0.00076154
-0.00075691
-0.00075193
-0.00074660
-0.00074095
-0.00073499
-0.00072876
-0.00072228
-0.00071553
-0.00070852
-0.00070124
-0.00069369
-0.00068584
-0.00067768
-0.00066918
-0.00066034
-0.00065116
-0.00064162
-0.00063172
-0.00062146
-0.00061082
-0.00059976
-0.00058825
-0.00057627
-0.00056383
-0.00055090
-0.00053752
-0.00052368
-0.00050940
-0.00049469
-0.00047952
-0.00046392
-0.00044787
-0.00043141
-0.00041456
-0.00039734
-0.00037982
-0.00036204
-0.00034406
-0.00032592
-0.00030768
-0.00028940
-0.00027113
-0.00025292
-0.00023481
-0.00021680
-0.00019891
-0.00018115
-0.00016353
-0.00014605
-0.00012875
-0.00011164
-0.00009477
-0.00007813
-0.00006175
-0.00004563
-0.00002979
-0.00001426
0.00000094
0.00001580
0.00003031
0.00004444
0.00005818
0.00007149
0.00008432
0.00009665
0.00010843
0.00011963
0.00013023
0.00014023
0.00014961
0.00015835
0.00016643
0.00017383
0.00018054
0.00018655
0.00019187
0.00019649
0.00020044
0.00020371
0.00020630
0.00020821
0.00020946
0.00021007
0.00021009
0.00020956
0.00020850
0.00020695
0.00020496
0.00020255
0.00019977
0.00019662
0.00019310
0.00018921
0.00018495
0.00018034
0.00017538
0.00017007
0.00016440
0.00015838
0.00015201
0.00014530
0.00013823
0.00013080
0.00012296
0.00011471
0.00010603
0.00009696
0.00008753
0.00007779
0.00006777
0.00005749
0.00004697
0.00003622
0.00002530
0.00001423
0.00000306
-0.00000814
-0.00001933
-0.00003047
-0.00004152
-0.00005244
-0.00006322
-0.00007384
-0.00008427
-0.00009446
-0.00010439
-0.00011401
-0.00012327
-0.00013214
-0.00014061
-0.00014869
-0.00015638
-0.00016369
-0.00017065
-0.00017722
-0.00018343
-0.00018927
-0.00019473
-0.00019981
-0.00020449
-0.00020878
-0.00021266
-0.00021610
-0.00021910
-0.00022162
-0.00022364
-0.00022513
-0.00022608
-0.00022645
-0.00022624
-0.00022544
-0.00022405
-0.00022204
-0.00021940
-0.00021610
-0.00021212
-0.00020742
-0.00020199
-0.00019582
-0.00018895
-0.00018140
-0.00017322
-0.00016445
-0.00015510
-0.00014523
-0.00013487
-0.00012405
-0.00011277
-0.00010107
-0.00008896
-0.00007645
-0.00006354
-0.00005025
-0.00003661
-0.00002262
-0.00000830
0.00000635
0.00002135
0.00003672
0.00005246
0.00006860
0.00008514
0.00010209
0.00011947
0.00013728
0.00015551
0.00017419
0.00019332
0.00021292
0.00023297
0.00025347
0.00027441
0.00029577
0.00031753
0.00033968
0.00036220
0.00038509
0.00040832
0.00043183
0.00045558
0.00047954
0.00050370
0.00052805
0.00055258
0.00057731
0.00060222
0.00062731
0.00065259
0.00067807
0.00070373
0.00072959
0.00075564
0.00078187
0.00080825
0.00083476
0.00086135
0.00088798
0.00091464
0.00094132
0.00096800
0.00099467
0.00102132
0.00104793
0.00107450
0.00110102
0.00112748
0.00115388
0.00118022
0.00120651
0.00123274
0.00125890
0.00128498
0.00131097
0.00133687
0.00136266
0.00138832
0.00141383
0.00143917
0.00146431
0.00148923
0.00151392
0.00153837
0.00156262
0.00158670
0.00161062
0.00163440
0.00165805
0.00168155
0.00170490
0.00172808
0.00175108
0.00177390
0.00179655
0.00181904
0.00184136
0.00186350
0.00188546
0.00190723
0.00192881
0.00195021
0.00197142
0.00199243
0.00201321
0.00203371
0.00205391
0.00207377
0.00209327
0.00211239
0.00213112
0.00214944
0.00216733
0.00218476
0.00220173
0.00221820
0.00223418
0.00224963
0.00226457
0.00227899
0.00229289
0.00230628
0.00231914
0.00233148
0.00234333
0.00235471
0.00236562
0.00237608
0.00238610
0.00239570
0.00240489
0.00241368
0.00242210
0.00243014
0.00243781
0.00244513
0.00245211
0.00245874
0.00246502
0.00247093
0.00247643
0.00248148
0.00248604
0.00249008
0.00249358
0.00249654
0.00249895
0.00250082
0.00250217
0.00250301
0.00250337
0.00250327
0.00250272
0.00250174
0.00250034
0.00249853
0.00249635
0.00249382
0.00249094
0.00248773
0.00248418
0.00248029
0.00247606
0.00247151
0.00246665
0.00246147
0.00245598
0.00245019
0.00244410
0.00243773
0.00243108
0.00242415
0.00241694
0.00240944
0.00240163
0.00239349
0.00238497
0.00237607
0.00236676
0.00235704
0.00234691
0.00233638
0.00232546
0.00231419
0.00230259
0.00229068
0.00227848
0.00226601
0.00225331
0.00224039
0.00222726
0.00221391
0.00220033
0.00218651
0.00217247
0.00215823
0.00214381
0.00212924
0.00211452
0.00209967
0.00208469
0.00206957
0.00205434
0.00203898
0.00202350
0.00200790
0.00199216
0.00197625
0.00196017
0.00194388
0.00192739
0.00191066
0.00189371
0.00187654
0.00185918
0.00184161
0.00182384
0.00180585
0.00178766
0.00176928
0.00175074
0.00173205
0.00171322
0.00169425
0.00167517
0.00165598
0.00163672
0.00161743
0.00159816
0.00157893
0.00155978
0.00154070
0.00152172
0.00150283
0.00148404
0.00146535
0.00144677
0.00142830
0.00140993
0.00139162
0.00137336
0.00135510
0.00133684
0.00131855
0.00130024
0.00128189
0.00126352
0.00124510
0.00122665
0.00120816
0.00118965
0.00117113
0.00115261
0.00113410
0.00111560
0.00109714
0.00107874
0.00106045
0.00104232
0.00102441
0.00100674
0.00098933
0.00097219
0.00095532
0.00093872
0.00092240
0.00090639
0.00089071
0.00087536
0.00086034
0.00084563
0.00083124
0.00081713
0.00080327
0.00078964
0.00077620
0.00076294
0.00074983
0.00073685
0.00072399
0.00071122
0.00069851
0.00068587
0.00067330
0.00066082
0.00064843
0.00063616
0.00062403
0.00061204
0.00060021
0.00058855
0.00057707
0.00056578
0.00055466
0.00054374
0.00053299
0.00052245
0.00051212
0.00050203
0.00049219
0.00048262
0.00047332
0.00046429
0.00045553
0.00044706
0.00043886
0.00043094
0.00042328
0.00041587
0.00040869
0.00040171
0.00039492
0.00038827
0.00038177
0.00037540
0.00036914
0.00036298
0.00035693
0.00035099
0.00034518
0.00033952
0.00033401
0.00032866
0.00032348
0.00031845
0.00031355
0.00030878
0.00030412
0.00029960
0.00029521
0.00029096
0.00028685
0.00028286
0.00027897
0.00027517
0.00027145
0.00026780
0.00026419
0.00026063
0.00025707
0.00025352
0.00024996
0.00024637
0.00024276
0.00023911
0.00023545
0.00023177
0.00022810
0.00022445
0.00022082
0.00021721
0.00021360
0.00020999
0.00020639
0.00020280
0.00019924
0.00019572
0.00019224
0.00018879
0.00018536
0.00018197
0.00017863
0.00017532
0.00017204
0.00016880
0.00016557
0.00016237
0.00015917
0.00015598
0.00015279
0.00014959
0.00014638
0.00014314
0.00013990
0.00013665
0.00013338
0.00013006
0.00012667
0.00012318
0.00011959
0.00011588
0.00011205
0.00010808
0.00010395
0.00009963
0.00009513
0.00009043
0.00008553
0.00008040
0.00007504
0.00006947
0.00006369
0.00005774
0.00005165
0.00004543
0.00003911
0.00003270
0.00002621
0.00001965
0.00001303
0.00000634
-0.00000044
-0.00000732
-0.00001435
-0.00002155
-0.00002896
-0.00003660
-0.00004450
-0.00005267
-0.00006111
-0.00006982
-0.00007879
-0.00008802
-0.00009754
-0.00010731
-0.00011732
-0.00012753
-0.00013793
-0.00014847
-0.00015914
-0.00016990
-0.00018074
-0.00019166
-0.00020264
-0.00021369
-0.00022477
-0.00023586
-0.00024692
-0.00025790
-0.00026878
-0.00027953
-0.00029015
-0.00030064
-0.00031101
-0.00032125
-0.00033135
-0.00034132
-0.00035115
-0.00036086
-0.00037047
-0.00038002
-0.00038952
-0.00039901
-0.00040850
-0.00041797
-0.00042742
-0.00043683
-0.00044618
-0.00045547
-0.00046469
-0.00047387
-0.00048298
-0.00049203
-0.00050098
-0.00050980
-0.00051848
-0.00052699
-0.00053532
-0.00054344
-0.00055133
-0.00055897
-0.00056635
-0.00057343
-0.00058021
-0.00058666
-0.00059276
-0.00059849
-0.00060384
-0.00060880
-0.00061336
-0.00061753
-0.00062131
-0.00062473
-0.00062779
-0.00063051
-0.00063291
-0.00063499
-0.00063677
-0.00063823
-0.00063938
-0.00064025
-0.00064084
-0.00064116
-0.00064121
-0.00064102
-0.00064057
-0.00063985
-0.00063885
-0.00063757
-0.00063602
-0.00063419
-0.00063210
-0.00062975
-0.00062716
-0.00062431
-0.00062121
-0.00061785
-0.00061424
-0.00061039
-0.00060632
-0.00060204
-0.00059759
-0.00059298
-0.00058820
-0.00058326
-0.00057816
-0.00057290
-0.00056748
-0.00056192
-0.00055623
-0.00055042
-0.00054452
-0.00053855
-0.00053254
-0.00052650
-0.00052045
-0.00051440
-0.00050835
-0.00050232
-0.00049630
-0.00049032
-0.00048439
-0.00047853
-0.00047275
-0.00046700
-0.00046125
-0.00045545
-0.00044959
-0.00044367
-0.00043770
-0.00043169
-0.00042563
-0.00041955
-0.00041347
-0.00040739
-0.00040135
-0.00039535
-0.00038943
-0.00038359
-0.00037784
-0.00037219
-0.00036665
-0.00036122
-0.00035593
-0.00035076
-0.00034571
-0.00034077
-0.00033591
-0.00033114
-0.00032646
-0.00032186
-0.00031736
-0.00031296
-0.00030868
-0.00030452
-0.00030046
-0.00029652
-0.00029265
-0.00028884
-0.00028504
-0.00028123
-0.00027739
-0.00027353
-0.00026964
-0.00026571
-0.00026170
-0.00025759
-0.00025335
-0.00024897
-0.00024443
-0.00023975
-0.00023496
-0.00023007
-0.00022511
-0.00022012
-0.00021514
-0.00021018
-0.00020524
-0.00020034
-0.00019550
-0.00019074
-0.00018610
-0.00018162
-0.00017732
-0.00017321
-0.00016928
-0.00016551
-0.00016188
-0.00015837
-0.00015498
-0.00015167
-0.00014841
-0.00014519
-0.00014201
-0.00013889
-0.00013582
-0.00013282
-0.00012988
-0.00012699
-0.00012414
-0.00012134
-0.00011860
-0.00011592
-0.00011330
-0.00011076
-0.00010829
-0.00010592
-0.00010366
-0.00010152
-0.00009951
-0.00009764
-0.00009592
-0.00009436
-0.00009298
-0.00009180
-0.00009085
-0.00009015
-0.00008971
-0.00008954
-0.00008961
-0.00008993
-0.00009049
-0.00009128
-0.00009234
-0.00009368
-0.00009530
-0.00009721
-0.00009937
-0.00010179
-0.00010445
-0.00010733
-0.00011043
-0.00011371
-0.00011718
-0.00012082
-0.00012462
-0.00012860
-0.00013278
-0.00013716
-0.00014176
-0.00014658
-0.00015165
-0.00015697
-0.00016255
-0.00016838
-0.00017446
-0.00018079
-0.00018734
-0.00019413
-0.00020114
-0.00020837
-0.00021582
-0.00022349
-0.00023135
-0.00023942
-0.00024768
-0.00025613
-0.00026476
-0.00027352
-0.00028241
-0.00029140
-0.00030051
-0.00030974
-0.00031907
-0.00032847
-0.00033792
-0.00034739
-0.00035688
-0.00036635
-0.00037581
-0.00038524
-0.00039467
-0.00040410
-0.00041355
-0.00042307
-0.00043267
-0.00044237
-0.00045219
-0.00046213
-0.00047218
-0.00048235
-0.00049265
-0.00050305
-0.00051355
-0.00052415
-0.00053480
-0.00054549
-0.00055620
-0.00056691
-0.00057763
-0.00058835
-0.00059909
-0.00060988
-0.00062072
-0.00063161
-0.00064254
-0.00065351
-0.00066450
-0.00067552
-0.00068654
-0.00069756
-0.00070858
-0.00071959
-0.00073059
-0.00074155
-0.00075247
-0.00076333
-0.00077412
-0.00078481
-0.00079540
-0.00080589
-0.00081632
-0.00082668
-0.00083697
-0.00084719
-0.00085732
-0.00086735
-0.00087730
-0.00088715
-0.00089689
-0.00090649
-0.00091595
-0.00092524
-0.00093435
-0.00094328
-0.00095203
-0.00096061
-0.00096901
-0.00097722
-0.00098525
-0.00099308
-0.00100071
-0.00100815
-0.00101539
-0.00102245
-0.00102931
-0.00103600
-0.00104250
-0.00104881
-0.00105492
-0.00106083
-0.00106654
-0.00107205
-0.00107735
-0.00108245
-0.00108735
-0.00109204
-0.00109655
-0.00110088
-0.00110505
-0.00110907
-0.00111296
-0.00111671
-0.00112034
-0.00112383
-0.00112719
-0.00113042
-0.00113353
-0.00113654
-0.00113946
-0.00114229
-0.00114501
-0.00114760
-0.00115008
-0.00115242
-0.00115463
-0.00115669
-0.00115859
-0.00116031
-0.00116185
-0.00116321
-0.00116438
-0.00116538
-0.00116623
-0.00116695
-0.00116756
-0.00116809
-0.00116856
-0.00116899
-0.00116938
-0.00116977
-0.00117017
-0.00117060
-0.00117108
-0.00117162
-0.00117221
-0.00117283
-0.00117346
-0.00117408
-0.00117465
-0.00117517
-0.00117562
-0.00117598
-0.00117624
-0.00117636
-0.00117633
-0.00117614
-0.00117577
-0.00117521
-0.00117445
-0.00117349
-0.00117232
-0.00117097
-0.00116942
-0.00116769
-0.00116578
-0.00116372
-0.00116153
-0.00115921
-0.00115678
-0.00115426
-0.00115168
-0.00114905
-0.00114640
-0.00114374
-0.00114108
-0.00113843
-0.00113583
-0.00113327
-0.00113077
-0.00112831
-0.00112589
-0.00112351
-0.00112116
-0.00111879
-0.00111640
-0.00111395
-0.00111143
-0.00110883
-0.00110612
-0.00110331
-0.00110037
-0.00109729
-0.00109406
-0.00109066
-0.00108709
-0.00108336
-0.00107947
-0.00107542
-0.00107122
-0.00106688
-0.00106241
-0.00105780
-0.00105307
-0.00104822
-0.00104325
-0.00103818
-0.00103301
-0.00102774
-0.00102239
-0.00101698
-0.00101149
-0.00100594
-0.00100030
-0.00099456
-0.00098871
-0.00098275
-0.00097670
-0.00097059
-0.00096445
-0.00095828
-0.00095209
-0.00094584
-0.00093950
-0.00093306
-0.00092647
-0.00091973
-0.00091282
-0.00090575
-0.00089850
-0.00089110
-0.00088357
-0.00087593
-0.00086820
-0.00086040
-0.00085255
-0.00084465
-0.00083673
-0.00082881
-0.00082088
-0.00081296
-0.00080503
-0.00079707
-0.00078905
-0.00078094
-0.00077271
-0.00076434
-0.00075583
-0.00074716
-0.00073834
-0.00072937
-0.00072030
-0.00071114
-0.00070193
-0.00069266
-0.00068331
-0.00067389
-0.00066438
-0.00065475
-0.00064498
-0.00063508
-0.00062506
-0.00061493
-0.00060468
-0.00059432
-0.00058387
-0.00057335
-0.00056274
-0.00055205
-0.00054128
-0.00053044
-0.00051954
-0.00050859
-0.00049759
-0.00048656
-0.00047549
-0.00046439
-0.00045325
-0.00044206
-0.00043082
-0.00041952
-0.00040815
-0.00039669
-0.00038509
-0.00037334
-0.00036142
-0.00034929
-0.00033695
-0.00032438
-0.00031155
-0.00029847
-0.00028512
-0.00027150
-0.00025762
-0.00024345
-0.00022900
-0.00021427
-0.00019926
-0.00018400
-0.00016852
-0.00015284
-0.00013700
-0.00012101
-0.00010487
-0.00008860
-0.00007220
-0.00005569
-0.00003911
-0.00002248
-0.00000584
0.00001077
0.00002734
0.00004387
0.00006036
0.00007683
0.00009325
0.00010963
0.00012595
0.00014217
0.00015829
0.00017430
0.00019019
0.00020595
0.00022157
0.00023702
0.00025229
0.00026735
0.00028221
0.00029686
0.00031129
0.00032548
0.00033942
0.00035310
0.00036649
0.00037957
0.00039231
0.00040471
0.00041675
0.00042844
0.00043977
0.00045076
0.00046138
0.00047165
0.00048158
0.00049119
0.00050049
0.00050949
0.00051820
0.00052661
0.00053473
0.00054258
0.00055022
0.00055766
0.00056493
0.00057204
0.00057898
0.00058576
0.00059237
0.00059883
0.00060514
0.00061130
0.00061730
0.00062316
0.00062889
0.00063448
0.00063994
0.00064523
0.00065036
0.00065532
0.00066008
0.00066464
0.00066898
0.00067309
0.00067694
0.00068053
0.00068385
0.00068689
0.00068967
0.00069218
0.00069443
0.00069641
0.00069815
0.00069967
0.00070096
0.00070202
0.00070282
0.00070336
0.00070362
0.00070360
0.00070330
0.00070275
0.00070198
0.00070100
0.00069984
0.00069849
0.00069695
0.00069522
0.00069329
0.00069119
0.00068892
0.00068651
0.00068396
0.00068130
0.00067854
0.00067567
0.00067268
0.00066958
0.00066634
0.00066298
0.00065950
0.00065592
0.00065224
0.00064847
0.00064461
0.00064067
0.00063665
0.00063254
0.00062833
0.00062402
0.00061961
0.00061510
0.00061053
0.00060591
0.00060128
0.00059665
0.00059202
0.00058743
0.00058289
0.00057841
0.00057402
0.00056971
0.00056548
0.00056135
0.00055732
0.00055339
0.00054955
0.00054579
0.00054209
0.00053841
0.00053478
0.00053118
0.00052763
0.00052417
0.00052083
0.00051761
0.00051456
0.00051167
0.00050897
0.00050649
0.00050423
0.00050223
0.00050048
0.00049901
0.00049786
0.00049705
0.00049661
0.00049655
0.00049691
0.00049767
0.00049886
0.00050049
0.00050258
0.00050515
0.00050820
0.00051173
0.00051570
0.00052009
0.00052487
0.00053001
0.00053549
0.00054131
0.00054745
0.00055387
0.00056054
0.00056741
0.00057445
0.00058159
0.00058879
0.00059603
0.00060331
0.00061062
0.00061797
0.00062539
0.00063287
0.00064042
0.00064801
0.00065564
0.00066332
0.00067104
0.00067884
0.00068672
0.00069467
0.00070272
0.00071084
0.00071904
0.00072731
0.00073562
0.00074397
0.00075233
0.00076067
0.00076897
0.00077721
0.00078539
0.00079349
0.00080151
0.00080940
0.00081715
0.00082473
0.00083211
0.00083930
0.00084628
0.00085307
0.00085967
0.00086609
0.00087232
0.00087839
0.00088430
0.00089007
0.00089568
0.00090115
0.00090648
0.00091166
0.00091672
0.00092165
0.00092646
0.00093116
0.00093574
0.00094019
0.00094453
0.00094874
0.00095282
0.00095677
0.00096055
0.00096415
0.00096755
0.00097073
0.00097365
0.00097628
0.00097859
0.00098055
0.00098216
0.00098341
0.00098429
0.00098482
0.00098500
0.00098482
0.00098428
0.00098339
0.00098214
0.00098056
0.00097866
0.00097646
0.00097395
0.00097115
0.00096805
0.00096463
0.00096091
0.00095691
0.00095264
0.00094813
0.00094339
0.00093845
0.00093333
0.00092802
0.00092252
0.00091679
0.00091084
0.00090463
0.00089816
0.00089138
0.00088428
0.00087685
0.00086905
0.00086089
0.00085236
0.00084345
0.00083415
0.00082445
0.00081435
0.00080384
0.00079294
0.00078165
0.00077000
0.00075800
0.00074567
0.00073304
0.00072013
0.00070694
0.00069349
0.00067979
0.00066587
0.00065174
0.00063741
0.00062290
0.00060823
0.00059341
0.00057846
0.00056342
0.00054829
0.00053312
0.00051791
0.00050266
0.00048738
0.00047205
0.00045668
0.00044126
0.00042582
0.00041034
0.00039482
0.00037927
0.00036369
0.00034810
0.00033254
0.00031705
0.00030165
0.00028637
0.00027123
0.00025623
0.00024138
0.00022670
0.00021220
0.00019791
0.00018385
0.00017005
0.00015652
0.00014329
0.00013036
0.00011774
0.00010543
0.00009340
0.00008162
0.00007007
0.00005871
0.00004751
0.00003643
0.00002542
0.00001444
0.00000345
-0.00000756
-0.00001861
-0.00002969
-0.00004080
-0.00005194
-0.00006311
-0.00007429
-0.00008545
-0.00009660
-0.00010774
-0.00011889
-0.00013008
-0.00014131
-0.00015259
-0.00016389
-0.00017521
-0.00018652
-0.00019782
-0.00020909
-0.00022032
-0.00023150
-0.00024262
-0.00025368
-0.00026469
-0.00027563
-0.00028653
-0.00029739
-0.00030824
-0.00031912
-0.00033005
-0.00034106
-0.00035217
-0.00036338
-0.00037473
-0.00038625
-0.00039797
-0.00040992
-0.00042211
-0.00043456
-0.00044727
-0.00046024
-0.00047345
-0.00048689
-0.00050053
-0.00051437
-0.00052839
-0.00054259
-0.00055697
-0.00057151
-0.00058620
-0.00060102
-0.00061594
-0.00063098
-0.00064611
-0.00066134
-0.00067666
-0.00069208
-0.00070757
-0.00072317
-0.00073887
-0.00075467
-0.00077054
-0.00078643
-0.00080232
-0.00081816
-0.00083393
-0.00084966
-0.00086532
-0.00088092
-0.00089646
-0.00091196
-0.00092745
-0.00094293
-0.00095843
-0.00097397
-0.00098953
-0.00100512
-0.00102072
-0.00103633
-0.00105194
-0.00106757
-0.00108321
-0.00109888
-0.00111456
-0.00113024
-0.00114594
-0.00116166
-0.00117740
-0.00119319
-0.00120900
-0.00122485
-0.00124071
-0.00125657
-0.00127244
-0.00128829
-0.00130414
-0.00131999
-0.00133583
-0.00135168
-0.00136753
-0.00138340
-0.00139927
-0.00141513
-0.00143098
-0.00144680
-0.00146262
-0.00147843
-0.00149424
-0.00151003
-0.00152576
-0.00154142
-0.00155700
-0.00157251
-0.00158795
-0.00160336
-0.00161877
-0.00163418
-0.00164961
-0.00166506
-0.00168050
-0.00169590
-0.00171122
-0.00172643
-0.00174147
-0.00175633
-0.00177098
-0.00178541
-0.00179960
-0.00181357
-0.00182729
-0.00184076
-0.00185394
-0.00186684
-0.00187946
-0.00189183
-0.00190398
-0.00191591
-0.00192765
-0.00193921
-0.00195058
-0.00196174
-0.00197264
-0.00198326
-0.00199357
-0.00200356
-0.00201322
-0.00202252
-0.00203144
-0.00203992
-0.00204794
-0.00205547
-0.00206248
-0.00206894
-0.00207484
-0.00208015
-0.00208488
-0.00208902
-0.00209257
-0.00209556
-0.00209799
-0.00209988
-0.00210121
-0.00210198
-0.00210219
-0.00210180
-0.00210083
-0.00209927
-0.00209713
-0.00209444
-0.00209120
-0.00208741
-0.00208306
-0.00207815
-0.00207267
-0.00206661
-0.00205996
-0.00205272
-0.00204490
-0.00203649
-0.00202750
-0.00201793
-0.00200777
-0.00199699
-0.00198560
-0.00197358
-0.00196093
-0.00194763
-0.00193369
-0.00191909
-0.00190381
-0.00188783
-0.00187115
-0.00185379
-0.00183578
-0.00181715
-0.00179795
-0.00177822
-0.00175800
-0.00173733
-0.00171623
-0.00169471
-0.00167278
-0.00165048
-0.00162783
-0.00160485
-0.00158155
-0.00155795
-0.00153406
-0.00150991
-0.00148551
-0.00146089
-0.00143604
-0.00141099
-0.00138576
-0.00136041
-0.00133497
-0.00130946
-0.00128389
-0.00125826
-0.00123257
-0.00120682
-0.00118099
-0.00115509
-0.00112910
-0.00110304
-0.00107692
-0.00105075
-0.00102455
-0.00099832
-0.00097209
-0.00094588
-0.00091974
-0.00089371
-0.00086782
-0.00084211
-0.00081658
-0.00079127
-0.00076619
-0.00074139
-0.00071688
-0.00069266
-0.00066873
-0.00064507
-0.00062168
-0.00059854
-0.00057565
-0.00055301
-0.00053058
-0.00050837
-0.00048636
-0.00046453
-0.00044286
-0.00042131
-0.00039987
-0.00037851
-0.00035721
-0.00033594
-0.00031467
-0.00029337
-0.00027200
-0.00025054
-0.00022900
-0.00020743
-0.00018585
-0.00016433
-0.00014290
-0.00012158
-0.00010042
-0.00007944
-0.00005870
-0.00003824
-0.00001808
0.00000176
0.00002125
0.00004038
0.00005915
0.00007755
0.00009556
0.00011318
0.00013039
0.00014721
0.00016363
0.00017965
0.00019527
0.00021049
0.00022529
0.00023969
0.00025369
0.00026729
0.00028052
0.00029340
0.00030595
0.00031818
0.00033011
0.00034174
0.00035307
0.00036410
0.00037479
0.00038514
0.00039514
0.00040479
0.00041410
0.00042308
0.00043172
0.00044000
0.00044790
0.00045540
0.00046247
0.00046910
0.00047529
0.00048105
0.00048639
0.00049133
0.00049589
0.00050007
0.00050386
0.00050727
0.00051032
0.00051305
0.00051549
0.00051770
0.00051972
0.00052157
0.00052325
0.00052478
0.00052618
0.00052745
0.00052858
0.00052958
0.00053045
0.00053123
0.00053192
0.00053255
0.00053309
0.00053353
0.00053387
0.00053411
0.00053426
0.00053432
0.00053430
0.00053417
0.00053397
0.00053371
0.00053345
0.00053320
0.00053299
0.00053285
0.00053282
0.00053291
0.00053316
0.00053359
0.00053423
0.00053509
0.00053618
0.00053752
0.00053912
0.00054097
0.00054309
0.00054548
0.00054818
0.00055120
0.00055457
0.00055828
0.00056232
0.00056663
0.00057118
0.00057595
0.00058092
0.00058609
0.00059145
0.00059703
0.00060284
0.00060888
0.00061518
0.00062177
0.00062867
0.00063594
0.00064359
0.00065165
0.00066011
0.00066896
0.00067817
0.00068771
0.00069756
0.00070772
0.00071817
0.00072889
0.00073987
0.00075110
0.00076259
0.00077433
0.00078633
0.00079856
0.00081103
0.00082371
0.00083657
0.00084959
0.00086273
0.00087596
0.00088925
0.00090259
0.00091594
0.00092930
0.00094264
0.00095595
0.00096921
0.00098241
0.00099555
0.00100860
0.00102159
0.00103452
0.00104739
0.00106020
0.00107290
0.00108548
0.00109795
0.00111031
0.00112259
0.00113482
0.00114699
0.00115916
0.00117134
0.00118354
0.00119577
0.00120805
0.00122037
0.00123273
0.00124513
0.00125754
0.00126995
0.00128231
0.00129459
0.00130675
0.00131875
0.00133057
0.00134217
0.00135355
0.00136468
0.00137556
0.00138622
0.00139666
0.00140692
0.00141699
0.00142690
0.00143666
0.00144628
0.00145577
0.00146513
0.00147436
0.00148347
0.00149245
0.00150130
0.00151001
0.00151857
0.00152698
0.00153526
0.00154342
0.00155146
0.00155938
0.00156717
0.00157484
0.00158237
0.00158978
0.00159704
0.00160416
0.00161113
0.00161793
0.00162453
0.00163092
0.00163707
0.00164296
0.00164859
0.00165398
0.00165914
0.00166410
0.00166884
0.00167340
0.00167776
0.00168196
0.00168602
0.00169000
0.00169393
0.00169783
0.00170172
0.00170561
0.00170951
0.00171341
0.00171731
0.00172122
0.00172513
0.00172901
0.00173285
0.00173664
0.00174034
0.00174393
0.00174740
0.00175073
0.00175391
0.00175693
0.00175979
0.00176249
0.00176504
0.00176744
0.00176968
0.00177179
0.00177377
0.00177566
0.00177746
0.00177919
0.00178087
0.00178249
0.00178405
0.00178555
0.00178699
0.00178834
0.00178960
0.00179075
0.00179182
0.00179284
0.00179387
0.00179491
0.00179600
0.00179714
0.00179832
0.00179954
0.00180077
0.00180201
0.00180326
0.00180451
0.00180577
0.00180705
0.00180836
0.00180970
0.00181104
0.00181236
0.00181365
0.00181493
0.00181621
0.00181752
0.00181886
0.00182026
0.00182174
0.00182331
0.00182498
0.00182680
0.00182877
0.00183090
0.00183323
0.00183575
0.00183849
0.00184143
0.00184457
0.00184791
0.00185145
0.00185517
0.00185908
0.00186318
0.00186744
0.00187186
0.00187646
0.00188123
0.00188618
0.00189130
0.00189656
0.00190192
0.00190738
0.00191290
0.00191848
0.00192411
0.00192978
0.00193550
0.00194126
0.00194707
0.00195290
0.00195875
0.00196460
0.00197044
0.00197625
0.00198203
0.00198778
0.00199349
0.00199916
0.00200478
0.00201034
0.00201587
0.00202135
0.00202679
0.00203220
0.00203757
0.00204290
0.00204817
0.00205337
0.00205849
0.00206349
0.00206837
0.00207309
0.00207763
0.00208194
0.00208602
0.00208983
0.00209336
0.00209660
0.00209952
0.00210212
0.00210436
0.00210621
0.00210764
0.00210864
0.00210918
0.00210926
0.00210885
0.00210794
0.00210652
0.00210454
0.00210197
0.00209876
0.00209491
0.00209042
0.00208529
0.00207955
0.00207321
0.00206627
0.00205874
0.00205058
0.00204180
0.00203237
0.00202227
0.00201149
0.00200000
0.00198778
0.00197480
0.00196105
0.00194649
0.00193109
0.00191481
0.00189760
0.00187945
0.00186033
0.00184026
0.00181924
0.00179726
0.00177433
0.00175044
0.00172559
0.00169977
0.00167298
0.00164523
0.00161654
0.00158697
0.00155657
0.00152539
0.00149347
0.00146085
0.00142756
0.00139362
0.00135906
0.00132388
0.00128812
0.00125178
0.00121487
0.00117741
0.00113937
0.00110079
0.00106168
0.00102206
0.00098195
0.00094138
0.00090033
0.00085881
0.00081684
0.00077445
0.00073167
0.00068854
0.00064509
0.00060135
0.00055734
0.00051307
0.00046859
0.00042390
0.00037903
0.00033397
0.00028872
0.00024329
0.00019772
0.00015202
0.00010622
0.00006035
0.00001441
-0.00003156
-0.00007753
-0.00012348
-0.00016938
-0.00021523
-0.00026104
-0.00030679
-0.00035249
-0.00039812
-0.00044368
-0.00048914
-0.00053449
-0.00057971
-0.00062481
-0.00066979
-0.00071464
-0.00075936
-0.00080396
-0.00084844
-0.00089279
-0.00093698
-0.00098098
-0.00102476
-0.00106830
-0.00111159
-0.00115461
-0.00119730
-0.00123966
-0.00128164
-0.00132322
-0.00136438
-0.00140508
-0.00144530
-0.00148502
-0.00152420
-0.00156284
-0.00160090
-0.00163836
-0.00167520
-0.00171141
-0.00174699
-0.00178194
-0.00181624
-0.00184988
-0.00188284
-0.00191510
-0.00194666
-0.00197751
-0.00200765
-0.00203710
-0.00206588
-0.00209400
-0.00212147
-0.00214829
-0.00217447
-0.00220001
-0.00222489
-0.00224910
-0.00227263
-0.00229547
-0.00231763
-0.00233911
-0.00235992
-0.00238003
-0.00239946
-0.00241822
-0.00243629
-0.00245368
-0.00247039
-0.00248639
-0.00250167
-0.00251621
-0.00253001
-0.00254310
-0.00255549
-0.00256719
-0.00257822
-0.00258858
-0.00259832
-0.00260747
-0.00261607
-0.00262416
-0.00263177
-0.00263890
-0.00264560
-0.00265186
-0.00265769
-0.00266308
-0.00266802
-0.00267248
-0.00267643
-0.00267985
-0.00268274
-0.00268512
-0.00268701
-0.00268841
-0.00268932
-0.00268972
-0.00268960
-0.00268896
-0.00268780
-0.00268613
-0.00268396
-0.00268131
-0.00267821
-0.00267466
-0.00267069
-0.00266633
-0.00266158
-0.00265647
-0.00265102
-0.00264527
-0.00263921
-0.00263287
-0.00262626
-0.00261937
-0.00261222
-0.00260481
-0.00259714
-0.00258921
-0.00258102
-0.00257257
-0.00256387
-0.00255490
-0.00254565
-0.00253610
-0.00252626
-0.00251611
-0.00250566
-0.00249486
-0.00248369
-0.00247212
-0.00246012
-0.00244764
-0.00243469
-0.00242125
-0.00240732
-0.00239289
-0.00237797
-0.00236256
-0.00234670
-0.00233040
-0.00231365
-0.00229646
-0.00227881
-0.00226073
-0.00224223
-0.00222335
-0.00220408
-0.00218445
-0.00216446
-0.00214410
-0.00212338
-0.00210231
-0.00208086
-0.00205903
-0.00203681
-0.00201422
-0.00199125
-0.00196794
-0.00194430
-0.00192036
-0.00189609
-0.00187150
-0.00184656
-0.00182126
-0.00179560
-0.00176957
-0.00174314
-0.00171632
-0.00168909
-0.00166146
-0.00163341
-0.00160497
-0.00157614
-0.00154696
-0.00151745
-0.00148764
-0.00145756
-0.00142720
-0.00139657
-0.00136568
-0.00133453
-0.00130314
-0.00127152
-0.00123967
-0.00120758
-0.00117525
-0.00114267
-0.00110982
-0.00107671
-0.00104335
-0.00100976
-0.00097596
-0.00094199
-0.00090784
-0.00087353
-0.00083908
-0.00080448
-0.00076975
-0.00073488
-0.00069988
-0.00066472
-0.00062940
-0.00059390
-0.00055822
-0.00052236
-0.00048637
-0.00045026
-0.00041407
-0.00037784
-0.00034162
-0.00030546
-0.00026943
-0.00023358
-0.00019796
-0.00016260
-0.00012755
-0.00009283
-0.00005847
-0.00002448
0.00000912
0.00004232
0.00007510
0.00010742
0.00013927
0.00017063
0.00020148
0.00023183
0.00026170
0.00029110
0.00032002
0.00034846
0.00037641
0.00040388
0.00043091
0.00045752
0.00048372
0.00050952
0.00053490
0.00055985
0.00058434
0.00060836
0.00063189
0.00065490
0.00067739
0.00069933
0.00072071
0.00074153
0.00076180
0.00078152
0.00080072
0.00081941
0.00083759
0.00085527
0.00087243
0.00088908
0.00090521
0.00092080
0.00093584
0.00095030
0.00096417
0.00097744
0.00099010
0.00100213
0.00101355
0.00102438
0.00103461
0.00104427
0.00105337
0.00106193
0.00106995
0.00107742
0.00108435
0.00109070
0.00109645
0.00110158
0.00110607
0.00110988
0.00111299
0.00111540
0.00111709
0.00111806
0.00111829
0.00111779
0.00111654
0.00111452
0.00111174
0.00110819
0.00110386
0.00109875
0.00109287
0.00108620
0.00107876
0.00107057
0.00106166
0.00105208
0.00104185
0.00103099
0.00101952
0.00100747
0.00099489
0.00098180
0.00096825
0.00095426
0.00093986
0.00092506
0.00090988
0.00089433
0.00087844
0.00086225
0.00084578
0.00082903
0.00081201
0.00079471
0.00077711
0.00075922
0.00074101
0.00072248
0.00070361
0.00068443
0.00066496
0.00064520
0.00062518
0.00060489
0.00058435
0.00056355
0.00054251
0.00052128
0.00049989
0.00047838
0.00045677
0.00043508
0.00041333
0.00039153
0.00036971
0.00034786
0.00032603
0.00030422
0.00028247
0.00026077
0.00023913
0.00021757
0.00019611
0.00017476
0.00015353
0.00013241
0.00011143
0.00009058
0.00006989
0.00004936
0.00002899
0.00000877
-0.00001127
-0.00003114
-0.00005080
-0.00007024
-0.00008944
-0.00010837
-0.00012698
-0.00014522
-0.00016308
-0.00018054
-0.00019759
-0.00021420
-0.00023036
-0.00024606
-0.00026126
-0.00027595
-0.00029012
-0.00030377
-0.00031691
-0.00032960
-0.00034185
-0.00035372
-0.00036523
-0.00037643
-0.00038734
-0.00039801
-0.00040844
-0.00041864
-0.00042861
-0.00043834
-0.00044783
-0.00045709
-0.00046615
-0.00047502
-0.00048370
-0.00049218
-0.00050043
-0.00050845
-0.00051623
-0.00052377
-0.00053105
-0.00053802
-0.00054467
-0.00055097
-0.00055691
-0.00056249
-0.00056771
-0.00057254
-0.00057700
-0.00058108
-0.00058478
-0.00058811
-0.00059107
-0.00059366
-0.00059590
-0.00059781
-0.00059941
-0.00060073
-0.00060178
-0.00060258
-0.00060315
-0.00060353
-0.00060374
-0.00060379
-0.00060371
-0.00060349
-0.00060314
-0.00060267
-0.00060208
-0.00060136
-0.00060049
-0.00059951
-0.00059842
-0.00059725
-0.00059600
-0.00059467
-0.00059326
-0.00059178
-0.00059023
-0.00058860
-0.00058691
-0.00058515
-0.00058334
-0.00058148
-0.00057958
-0.00057766
-0.00057572
-0.00057378
-0.00057186
-0.00057001
-0.00056824
-0.00056658
-0.00056505
-0.00056367
-0.00056243
-0.00056134
-0.00056040
-0.00055964
-0.00055908
-0.00055872
-0.00055855
-0.00055857
-0.00055878
-0.00055919
-0.00055981
-0.00056065
-0.00056171
-0.00056300
-0.00056453
-0.00056630
-0.00056831
-0.00057053
-0.00057297
-0.00057560
-0.00057841
-0.00058140
-0.00058454
-0.00058783
-0.00059127
-0.00059486
-0.00059860
-0.00060250
-0.00060659
-0.00061089
-0.00061545
-0.00062027
-0.00062538
-0.00063078
-0.00063648
-0.00064249
-0.00064883
-0.00065551
-0.00066254
-0.00066993
-0.00067765
-0.00068571
-0.00069408
-0.00070275
-0.00071171
-0.00072092
-0.00073033
-0.00073990
-0.00074957
-0.00075932
-0.00076913
-0.00077897
-0.00078883
-0.00079871
-0.00080859
-0.00081845
-0.00082828
-0.00083809
-0.00084787
-0.00085762
-0.00086735
-0.00087704
-0.00088668
-0.00089628
-0.00090585
-0.00091542
-0.00092501
-0.00093463
-0.00094428
-0.00095395
-0.00096366
-0.00097340
-0.00098317
-0.00099296
-0.00100278
-0.00101262
-0.00102249
-0.00103239
-0.00104232
-0.00105228
-0.00106228
-0.00107229
-0.00108231
-0.00109231
-0.00110228
-0.00111219
-0.00112202
-0.00113177
-0.00114142
-0.00115094
-0.00116032
-0.00116957
-0.00117871
-0.00118776
-0.00119677
-0.00120573
-0.00121468
-0.00122360
-0.00123250
-0.00124137
-0.00125021
-0.00125902
-0.00126780
-0.00127656
-0.00128528
-0.00129396
-0.00130261
-0.00131119
-0.00131971
-0.00132817
-0.00133655
-0.00134486
-0.00135309
-0.00136125
-0.00136934
-0.00137734
-0.00138527
-0.00139312
-0.00140089
-0.00140856
-0.00141612
-0.00142357
-0.00143092
-0.00143819
-0.00144538
-0.00145247
-0.00145945
-0.00146633
-0.00147311
-0.00147979
-0.00148637
-0.00149285
-0.00149926
-0.00150557
-0.00151181
-0.00151797
-0.00152405
-0.00153005
-0.00153598
-0.00154186
-0.00154769
-0.00155347
-0.00155920
-0.00156486
-0.00157044
-0.00157590
-0.00158122
-0.00158638
-0.00159135
-0.00159613
-0.00160075
-0.00160520
-0.00160951
-0.00161368
-0.00161774
-0.00162167
-0.00162546
-0.00162907
-0.00163248
-0.00163567
-0.00163863
-0.00164136
-0.00164386
-0.00164614
-0.00164819
-0.00165001
-0.00165163
-0.00165304
-0.00165428
-0.00165537
-0.00165633
-0.00165717
-0.00165788
-0.00165848
-0.00165895
-0.00165928
-0.00165947
-0.00165947
-0.00165926
-0.00165880
-0.00165804
-0.00165693
-0.00165542
-0.00165349
-0.00165112
-0.00164830
-0.00164499
-0.00164119
-0.00163690
-0.00163211
-0.00162685
-0.00162112
-0.00161493
-0.00160829
-0.00160122
-0.00159369
-0.00158572
-0.00157727
-0.00156834
-0.00155892
-0.00154903
-0.00153870
-0.00152797
-0.00151687
-0.00150546
-0.00149377
-0.00148183
-0.00146963
-0.00145718
-0.00144446
-0.00143145
-0.00141815
-0.00140456
-0.00139066
-0.00137645
-0.00136191
-0.00134703
-0.00133180
-0.00131621
-0.00130025
-0.00128392
-0.00126722
-0.00125015
-0.00123271
-0.00121493
-0.00119681
-0.00117837
-0.00115965
-0.00114067
-0.00112147
-0.00110209
-0.00108255
-0.00106291
-0.00104320
-0.00102343
-0.00100364
-0.00098387
-0.00096412
-0.00094439
-0.00092470
-0.00090506
-0.00088546
-0.00086593
-0.00084646
-0.00082708
-0.00080778
-0.00078856
-0.00076938
-0.00075024
-0.00073116
-0.00071213
-0.00069316
-0.00067425
-0.00065540
-0.00063661
-0.00061787
-0.00059916
-0.00058046
-0.00056175
-0.00054300
-0.00052420
-0.00050538
-0.00048657
-0.00046780
-0.00044910
-0.00043050
-0.00041201
-0.00039365
-0.00037544
-0.00035740
-0.00033956
-0.00032193
-0.00030452
-0.00028734
-0.00027041
-0.00025372
-0.00023728
-0.00022107
-0.00020509
-0.00018935
-0.00017387
-0.00015864
-0.00014366
-0.00012889
-0.00011431
-0.00009989
-0.00008563
-0.00007152
-0.00005754
-0.00004372
-0.00003007
-0.00001658
-0.00000327
0.00000988
0.00002287
0.00003571
0.00004840
0.00006094
0.00007331
0.00008551
0.00009751
0.00010931
0.00012090
0.00013228
0.00014346
0.00015443
0.00016522
0.00017583
0.00018628
0.00019659
0.00020675
0.00021676
0.00022659
0.00023620
0.00024561
0.00025482
0.00026385
0.00027275
0.00028152
0.00029019
0.00029876
0.00030723
0.00031562
0.00032395
0.00033222
0.00034043
0.00034856
0.00035658
0.00036448
0.00037222
0.00037979
0.00038719
0.00039442
0.00040146
0.00040829
0.00041492
0.00042134
0.00042758
0.00043367
0.00043965
0.00044555
0.00045138
0.00045714
0.00046282
0.00046841
0.00047388
0.00047922
0.00048442
0.00048948
0.00049443
0.00049928
0.00050405
0.00050874
0.00051336
0.00051790
0.00052236
0.00052676
0.00053112
0.00053545
0.00053977
0.00054409
0.00054839
0.00055265
0.00055687
0.00056102
0.00056508
0.00056905
0.00057290
0.00057662
0.00058021
0.00058364
0.00058689
0.00058993
0.00059275
0.00059534
0.00059768
0.00059977
0.00060161
0.00060324
0.00060468
0.00060598
0.00060718
0.00060829
0.00060931
0.00061024
0.00061106
0.00061178
0.00061237
0.00061285
0.00061322
0.00061349
0.00061366
0.00061374
0.00061375
0.00061369
0.00061356
0.00061339
0.00061319
0.00061296
0.00061273
0.00061250
0.00061226
0.00061201
0.00061175
0.00061145
0.00061110
0.00061068
0.00061016
0.00060955
0.00060884
0.00060804
0.00060717
0.00060619
0.00060508
0.00060379
0.00060234
0.00060074
0.00059903
0.00059724
0.00059539
0.00059348
0.00059153
0.00058954
0.00058752
0.00058549
0.00058347
0.00058150
0.00057961
0.00057781
0.00057610
0.00057446
0.00057286
0.00057126
0.00056965
0.00056797
0.00056621
0.00056434
0.00056237
0.00056031
0.00055817
0.00055595
0.00055368
0.00055135
0.00054899
0.00054661
0.00054421
0.00054177
0.00053930
0.00053681
0.00053432
0.00053183
0.00052936
0.00052690
0.00052445
0.00052202
0.00051960
0.00051722
0.00051490
0.00051265
0.00051049
0.00050840
0.00050638
0.00050443
0.00050251
0.00050060
0.00049866
0.00049668
0.00049463
0.00049248
0.00049020
0.00048780
0.00048524
0.00048254
0.00047970
0.00047676
0.00047375
0.00047069
0.00046763
0.00046461
0.00046163
0.00045868
0.00045575
0.00045284
0.00044995
0.00044709
0.00044425
0.00044145
0.00043870
0.00043602
0.00043340
0.00043085
0.00042839
0.00042601
0.00042370
0.00042144
0.00041921
0.00041702
0.00041488
0.00041277
0.00041072
0.00040871
0.00040672
0.00040474
0.00040275
0.00040076
0.00039878
0.00039681
0.00039486
0.00039293
0.00039100
0.00038906
0.00038710
0.00038509
0.00038301
0.00038085
0.00037861
0.00037633
0.00037403
0.00037174
0.00036950
0.00036732
0.00036522
0.00036320
0.00036126
0.00035941
0.00035765
0.00035597
0.00035440
0.00035291
0.00035148
0.00035010
0.00034876
0.00034744
0.00034613
0.00034482
0.00034354
0.00034230
0.00034113
0.00034005
0.00033907
0.00033819
0.00033739
0.00033668
0.00033606
0.00033554
0.00033513
0.00033482
0.00033457
0.00033437
0.00033421
0.00033407
0.00033396
0.00033388
0.00033385
0.00033388
0.00033397
0.00033410
0.00033426
0.00033444
0.00033462
0.00033478
0.00033491
0.00033499
0.00033500
0.00033489
0.00033465
0.00033427
0.00033373
0.00033306
0.00033225
0.00033131
0.00033026
0.00032909
0.00032780
0.00032639
0.00032489
0.00032332
0.00032170
0.00032001
0.00031821
0.00031624
0.00031408
0.00031168
0.00030905
0.00030620
0.00030316
0.00029996
0.00029664
0.00029323
0.00028973
0.00028618
0.00028257
0.00027893
0.00027530
0.00027170
0.00026816
0.00026468
0.00026129
0.00025797
0.00025471
0.00025153
0.00024840
0.00024533
0.00024232
0.00023937
0.00023647
0.00023359
0.00023073
0.00022790
0.00022511
0.00022240
0.00021979
0.00021732
0.00021502
0.00021292
0.00021106
0.00020949
0.00020821
0.00020724
0.00020659
0.00020624
0.00020618
0.00020642
0.00020695
0.00020778
0.00020894
0.00021046
0.00021234
0.00021457
0.00021712
0.00021997
0.00022311
0.00022653
0.00023025
0.00023427
0.00023859
0.00024321
0.00024814
0.00025337
0.00025891
0.00026475
0.00027091
0.00027738
0.00028417
0.00029124
0.00029859
0.00030621
0.00031410
0.00032229
0.00033080
0.00033963
0.00034879
0.00035830
0.00036813
0.00037829
0.00038876
0.00039954
0.00041066
0.00042212
0.00043393
0.00044611
0.00045865
0.00047153
0.00048475
0.00049826
0.00051207
0.00052614
0.00054047
0.00055503
0.00056982
0.00058484
0.00060009
0.00061560
0.00063137
0.00064743
0.00066378
0.00068047
0.00069751
0.00071491
0.00073266
0.00075074
0.00076915
0.00078788
0.00080691
0.00082625
0.00084588
0.00086578
0.00088595
0.00090639
0.00092709
0.00094804
0.00096924
0.00099065
0.00101226
0.00103402
0.00105593
0.00107795
0.00110005
0.00112221
0.00114439
0.00116657
0.00118873
0.00121086
0.00123292
0.00125491
0.00127680
0.00129859
0.00132026
0.00134182
0.00136327
0.00138460
0.00140583
0.00142693
0.00144790
0.00146874
0.00148947
0.00151010
0.00153066
0.00155114
0.00157155
0.00159189
0.00161214
0.00163230
0.00165237
0.00167235
0.00169223
0.00171202
0.00173170
0.00175125
0.00177066
0.00178989
0.00180893
0.00182774
0.00184630
0.00186459
0.00188260
0.00190030
0.00191767
0.00193468
0.00195129
0.00196749
0.00198325
0.00199858
0.00201347
0.00202791
0.00204190
0.00205542
0.00206846
0.00208101
0.00209308
0.00210469
0.00211585
0.00212658
0.00213689
0.00214679
0.00215629
0.00216539
0.00217408
0.00218237
0.00219026
0.00219774
0.00220482
0.00221146
0.00221766
0.00222341
0.00222869
0.00223346
0.00223767
0.00224130
0.00224434
0.00224678
0.00224865
0.00224995
0.00225070
0.00225091
0.00225060
0.00224979
0.00224848
0.00224669
0.00224445
0.00224178
0.00223871
0.00223526
0.00223142
0.00222720
0.00222261
0.00221766
0.00221239
0.00220680
0.00220091
0.00219471
0.00218823
0.00218148
0.00217447
0.00216723
0.00215979
0.00215217
0.00214440
0.00213649
0.00212844
0.00212026
0.00211193
0.00210347
0.00209490
0.00208620
0.00207738
0.00206845
0.00205941
0.00205027
0.00204104
0.00203175
0.00202242
0.00201306
0.00200371
0.00199439
0.00198511
0.00197591
0.00196679
0.00195774
0.00194876
0.00193983
0.00193095
0.00192214
0.00191340
0.00190472
0.00189609
0.00188748
0.00187888
0.00187024
0.00186154
0.00185274
0.00184383
0.00183478
0.00182560
0.00181625
0.00180674
0.00179707
0.00178723
0.00177723
0.00176707
0.00175677
0.00174634
0.00173578
0.00172511
0.00171432
0.00170342
0.00169242
0.00168131
0.00167012
0.00165886
0.00164755
0.00163622
0.00162489
0.00161355
0.00160224
0.00159096
0.00157973
0.00156854
0.00155739
0.00154627
0.00153517
0.00152407
0.00151293
0.00150174
0.00149046
0.00147907
0.00146755
0.00145588
0.00144406
0.00143207
0.00141992
0.00140760
0.00139513
0.00138250
0.00136973
0.00135683
0.00134381
0.00133067
0.00131743
0.00130408
0.00129062
0.00127707
0.00126344
0.00124972
0.00123592
0.00122204
0.00120805
0.00119395
0.00117970
0.00116531
0.00115078
0.00113612
0.00112136
0.00110651
0.00109159
0.00107661
0.00106157
0.00104645
0.00103122
0.00101587
0.00100040
0.00098482
0.00096914
0.00095338
0.00093754
0.00092163
0.00090567
0.00088968
0.00087367
0.00085767
0.00084170
0.00082576
0.00080987
0.00079402
0.00077822
0.00076248
0.00074681
0.00073123
0.00071574
0.00070037
0.00068514
0.00067007
0.00065515
0.00064038
0.00062576
0.00061129
0.00059698
0.00058282
0.00056879
0.00055491
0.00054114
0.00052749
0.00051392
0.00050045
0.00048703
0.00047367
0.00046033
0.00044702
0.00043368
0.00042032
0.00040693
0.00039355
0.00038020
0.00036690
0.00035368
0.00034054
0.00032749
