-0.76866086
-1.53757956
-1.53766741
-1.53690288
-1.53529910
-1.53287769
-1.52966216
-1.52567583
-1.52094174
-1.51548270
-1.50932127
-1.50247978
-1.49498025
-1.48684447
-1.47809394
-1.46874989
-1.45883329
-1.44836481
-1.43736482
-1.42585342
-1.41385045
-1.40137546
-1.38844767
-1.37508606
-1.36130928
-1.34713569
-1.33258336
-1.31767005
-1.30241324
-1.28683011
-1.27093756
-1.25475216
-1.23829019
-1.22156765
-1.20460024
-1.18740335
-1.16999212
-1.15238137
-1.13458563
-1.11661912
-1.09849573
-1.08022908
-1.06183246
-1.04331885
-1.02470094
-1.00599110
-0.98720145
-0.96834379
-0.94942966
-0.93047028
-0.91147661
-0.89245934
-0.87342888
-0.85439538
-0.83536871
-0.81635847
-0.79737398
-0.77842426
-0.75951806
-0.74066387
-0.72186992
-0.70314416
-0.68449434
-0.66592792
-0.64745214
-0.62907402
-0.61080031
-0.59263757
-0.57459209
-0.55666998
-0.53887706
-0.52121896
-0.50370108
-0.48632862
-0.46910654
-0.45203960
-0.43513234
-0.41838908
-0.40181396
-0.38541089
-0.36918360
-0.35313561
-0.33727028
-0.32159075
-0.30610001
-0.29080087
-0.27569595
-0.26078771
-0.24607841
-0.23157016
-0.21726488
-0.20316437
-0.18927023
-0.17558396
-0.16210686
-0.14884013
-0.13578482
-0.12294187
-0.11031208
-0.09789607
-0.08569439
-0.07370741
-0.06193542
-0.05037859
-0.03903701
-0.02791063
-0.01699933
-0.00630285
0.00417914
0.01444709
0.02450156
0.03434323
0.04397286
0.05339129
0.06259947
0.07159843
0.08038928
0.08897320
0.09735147
0.10552541
0.11349644
0.12126604
0.12883578
0.13620729
0.14338224
0.15036240
0.15714953
0.16374547
0.17015207
0.17637126
0.18240496
0.18825514
0.19392381
0.19941301
0.20472481
0.20986132
0.21482468
0.21961706
0.22424068
0.22869778
0.23299059
0.23712139
0.24109246
0.24490613
0.24856475
0.25207067
0.25542625
0.25863387
0.26169595
0.26461494
0.26739329
0.27003345
0.27253784
0.27490890
0.27714906
0.27926074
0.28124640
0.28310848
0.28484941
0.28647164
0.28797762
0.28936980
0.29065063
0.29182252
0.29288787
0.29384906
0.29470843
0.29546831
0.29613102
0.29669885
0.29717406
0.29755890
0.29785562
0.29806645
0.29819364
0.29823938
0.29820589
0.29809532
0.29790986
0.29765164
0.29732280
0.29692542
0.29646161
0.29593343
0.29534294
0.29469212
0.29398296
0.29321738
0.29239731
0.29152467
0.29060134
0.28962919
0.28861007
0.28754579
0.28643812
0.28528884
0.28409967
0.28287234
0.28160850
0.28030980
0.27897787
0.27761431
0.27622066
0.27479845
0.27334915
0.27187423
0.27037511
0.26885320
0.26730986
0.26574646
0.26416432
0.26256475
0.26094902
0.25931837
0.25767404
0.25601724
0.25434912
0.25267082
0.25098344
0.24928807
0.24758577
0.24587762
0.24416466
0.24244793
0.24072843
0.23900708
0.23728480
0.23556247
0.23384097
0.23212114
0.23040382
0.22868977
0.22697975
0.22527446
0.22357460
0.22188082
0.22019380
0.21851413
0.21684242
0.21517923
0.21352514
0.21188070
0.21024645
0.20862292
0.20701062
0.20541005
0.20382167
0.20224595
0.20068331
0.19913417
0.19759890
0.19607788
0.19457146
0.19307997
0.19160374
0.19014305
0.18869819
0.18726942
0.18585700
0.18446118
0.18308219
0.18172028
0.18037567
0.17904855
0.17773910
0.17644749
0.17517390
0.17391847
0.17268134
0.17146261
0.17026234
0.16908055
0.16791725
0.16677244
0.16564615
0.16453839
0.16344916
0.16237847
0.16132631
0.16029269
0.15927762
0.15828109
0.15730310
0.15634362
0.15540262
0.15448006
0.15357590
0.15269008
0.15182256
0.15097328
0.15014218
0.14932915
0.14853409
0.14775688
0.14699739
0.14625550
0.14553107
0.14482396
0.14413401
0.14346103
0.14280486
0.14216531
0.14154219
0.14093531
0.14034443
0.13976929
0.13920966
0.13866527
0.13813589
0.13762127
0.13712118
0.13663535
0.13616355
0.13570551
0.13526097
0.13482970
0.13441149
0.13400614
0.13361344
0.13323319
0.13286520
0.13250926
0.13216518
0.13183273
0.13151170
0.13120185
0.13090294
0.13061477
0.13033709
0.13006970
0.12981240
0.12956500
0.12932731
0.12909912
0.12888021
0.12867036
0.12846931
0.12827682
0.12809263
0.12791650
0.12774820
0.12758751
0.12743418
0.12728799
0.12714870
0.12701606
0.12688990
0.12677001
0.12665621
0.12654833
0.12644617
0.12634956
0.12625830
0.12617219
0.12609105
0.12601471
0.12594301
0.12587581
0.12581297
0.12575437
0.12569988
0.12564936
0.12560271
0.12555982
0.12552055
0.12548479
0.12545238
0.12542318
0.12539702
0.12537374
0.12535317
0.12533513
0.12531946
0.12530599
0.12529453
0.12528492
0.12527696
0.12527045
0.12526523
0.12526114
0.12525804
0.12525580
0.12525431
0.12525347
0.12525318
0.12525334
0.12525384
0.12525456
0.12525538
0.12525620
0.12525690
0.12525738
0.12525754
0.12525727
0.12525650
0.12525517
0.12525320
0.12525053
0.12524706
0.12524270
0.12523738
0.12523101
0.12522347
0.12521468
0.12520453
0.12519292
0.12517977
0.12516499
0.12514848
0.12513014
0.12510988
0.12508761
0.12506327
0.12503677
0.12500806
0.12497706
0.12494374
0.12490806
0.12486998
0.12482945
0.12478644
0.12474093
0.12469290
0.12464232
0.12458921
0.12453356
0.12447540
0.12441474
0.12435160
0.12428598
0.12421787
0.12414725
0.12407413
0.12399851
0.12392039
0.12383975
0.12375656
0.12367079
0.12358238
0.12349130
0.12339751
0.12330099
0.12320172
0.12309971
0.12299494
0.12288740
0.12277712
0.12266412
0.12254842
0.12243003
0.12230897
0.12218527
0.12205895
0.12193002
0.12179849
0.12166436
0.12152761
0.12138823
0.12124624
0.12110168
0.12095462
0.12080510
0.12065319
0.12049894
0.12034237
0.12018352
0.12002239
0.11985900
0.11969333
0.11952539
0.11935518
0.11918268
0.11900789
0.11883079
0.11865135
0.11846957
0.11828545
0.11809901
0.11791029
0.11771933
0.11752617
0.11733086
0.11713346
0.11693403
0.11673266
0.11652938
0.11632427
0.11611734
0.11590863
0.11569814
0.11548590
0.11527192
0.11505626
0.11483896
0.11462008
0.11439967
0.11417779
0.11395446
0.11372973
0.11350364
0.11327623
0.11304754
0.11281759
0.11258640
0.11235398
0.11212032
0.11188541
0.11164924
0.11141182
0.11117312
0.11093315
0.11069189
0.11044934
0.11020550
0.10996041
0.10971411
0.10946662
0.10921802
0.10896835
0.10871768
0.10846606
0.10821352
0.10796006
0.10770569
0.10745042
0.10719427
0.10693730
0.10667953
0.10642099
0.10616172
0.10590176
0.10564112
0.10537983
0.10511795
0.10485553
0.10459265
0.10432937
0.10406573
0.10380178
0.10353756
0.10327308
0.10300835
0.10274339
0.10247818
0.10221274
0.10194709
0.10168124
0.10141519
0.10114894
0.10088254
0.10061601
0.10034938
0.10008267
0.09981591
0.09954911
0.09928231
0.09901555
0.09874887
0.09848231
0.09821590
0.09794969
0.09768371
0.09741799
0.09715258
0.09688748
0.09662273
0.09635833
0.09609430
0.09583061
0.09556724
0.09530417
0.09504138
0.09477885
0.09451658
0.09425456
0.09399280
0.09373130
0.09347010
0.09320921
0.09294867
0.09268851
0.09242875
0.09216944
0.09191063
0.09165235
0.09139464
0.09113752
0.09088102
0.09062512
0.09036985
0.09011522
0.08986123
0.08960789
0.08935523
0.08910326
0.08885199
0.08860144
0.08835162
0.08810254
0.08785421
0.08760666
0.08735988
0.08711388
0.08686867
0.08662425
0.08638059
0.08613765
0.08589543
0.08565390
0.08541305
0.08517288
0.08493335
0.08469445
0.08445617
0.08421848
0.08398138
0.08374487
0.08350894
0.08327360
0.08303887
0.08280474
0.08257123
0.08233830
0.08210595
0.08187417
0.08164295
0.08141230
0.08118221
0.08095268
0.08072369
0.08049522
0.08026723
0.08003972
0.07981268
0.07958610
0.07935998
0.07913427
0.07890896
0.07868403
0.07845945
0.07823520
0.07801126
0.07778761
0.07756421
0.07734102
0.07711796
0.07689499
0.07667207
0.07644918
0.07622633
0.07600352
0.07578077
0.07555806
0.07533540
0.07511276
0.07489014
0.07466758
0.07444507
0.07422265
0.07400032
0.07377809
0.07355597
0.07333397
0.07311212
0.07289041
0.07266885
0.07244744
0.07222614
0.07200494
0.07178379
0.07156265
0.07134149
0.07112029
0.07089903
0.07067769
0.07045624
0.07023468
0.07001298
0.06979113
0.06956912
0.06934692
0.06912454
0.06890196
0.06867916
0.06845616
0.06823297
0.06800958
0.06778602
0.06756227
0.06733834
0.06711426
0.06689006
0.06666575
0.06644133
0.06621684
0.06599228
0.06576769
0.06554307
0.06531844
0.06509381
0.06486919
0.06464460
0.06442002
0.06419542
0.06397079
0.06374607
0.06352124
0.06329627
0.06307111
0.06284572
0.06262010
0.06239422
0.06216810
0.06194173
0.06171509
0.06148818
0.06126102
0.06103360
0.06080594
0.06057807
0.06035003
0.06012185
0.05989359
0.05966529
0.05943699
0.05920872
0.05898051
0.05875238
0.05852437
0.05829652
0.05806884
0.05784132
0.05761394
0.05738670
0.05715959
0.05693259
0.05670570
0.05647890
0.05625218
0.05602552
0.05579892
0.05557233
0.05534575
0.05511915
0.05489253
0.05466589
0.05443926
0.05421266
0.05398609
0.05375957
0.05353313
0.05330679
0.05308057
0.05285449
0.05262857
0.05240285
0.05217739
0.05195223
0.05172741
0.05150298
0.05127897
0.05105540
0.05083228
0.05060962
0.05038743
0.05016571
0.04994447
0.04972372
0.04950346
0.04928371
0.04906445
0.04884568
0.04862738
0.04840955
0.04819218
0.04797526
0.04775877
0.04754272
0.04732707
0.04711184
0.04689702
0.04668263
0.04646870
0.04625525
0.04604230
0.04582984
0.04561788
0.04540642
0.04519546
0.04498498
0.04477498
0.04456547
0.04435647
0.04414801
0.04394010
0.04373279
0.04352610
0.04332007
0.04311473
0.04291011
0.04270622
0.04250310
0.04230073
0.04209911
0.04189823
0.04169809
0.04149868
0.04130001
0.04110209
0.04090494
0.04070858
0.04051301
0.04031825
0.04012430
0.03993116
0.03973884
0.03954736
0.03935674
0.03916697
0.03897806
0.03879000
0.03860278
0.03841638
0.03823077
0.03804595
0.03786191
0.03767866
0.03749620
0.03731450
0.03713356
0.03695341
0.03677406
0.03659553
0.03641780
0.03624090
0.03606480
0.03588951
0.03571502
0.03554133
0.03536840
0.03519623
0.03502477
0.03485399
0.03468388
0.03451442
0.03434560
0.03417740
0.03400983
0.03384288
0.03367656
0.03351085
0.03334576
0.03318125
0.03301733
0.03285396
0.03269113
0.03252884
0.03236708
0.03220587
0.03204523
0.03188516
0.03172569
0.03156684
0.03140863
0.03125107
0.03109416
0.03093791
0.03078228
0.03062725
0.03047282
0.03031895
0.03016559
0.03001267
0.02986014
0.02970798
0.02955615
0.02940463
0.02925339
0.02910242
0.02895168
0.02880113
0.02865074
0.02850048
0.02835035
0.02820038
0.02805055
0.02790087
0.02775132
0.02760187
0.02745250
0.02730319
0.02715393
0.02700476
0.02685568
0.02670671
0.02655788
0.02640919
0.02626067
0.02611233
0.02596418
0.02581622
0.02566843
0.02552081
0.02537332
0.02522592
0.02507857
0.02493122
0.02478386
0.02463648
0.02448907
0.02434164
0.02419418
0.02404668
0.02389910
0.02375142
0.02360362
0.02345572
0.02330775
0.02315975
0.02301174
0.02286369
0.02271558
0.02256739
0.02241911
0.02227074
0.02212231
0.02197383
0.02182532
0.02167682
0.02152832
0.02137982
0.02123134
0.02108287
0.02093442
0.02078601
0.02063766
0.02048937
0.02034115
0.02019296
0.02004478
0.01989657
0.01974829
0.01959996
0.01945156
0.01930311
0.01915460
0.01900603
0.01885743
0.01870882
0.01856020
0.01841158
0.01826297
0.01811437
0.01796580
0.01781730
0.01766890
0.01752069
0.01737270
0.01722501
0.01707763
0.01693060
0.01678394
0.01663766
0.01649179
0.01634635
0.01620137
0.01605684
0.01591278
0.01576917
0.01562602
0.01548330
0.01534101
0.01519911
0.01505760
0.01491645
0.01477565
0.01463521
0.01449512
0.01435536
0.01421588
0.01407664
0.01393762
0.01379884
0.01366027
0.01352192
0.01338381
0.01324594
0.01310832
0.01297095
0.01283386
0.01269707
0.01256058
0.01242440
0.01228854
0.01215301
0.01201783
0.01188303
0.01174861
0.01161463
0.01148111
0.01134809
0.01121556
0.01108352
0.01095197
0.01082089
0.01069027
0.01056008
0.01043030
0.01030092
0.01017192
0.01004328
0.00991499
0.00978701
0.00965933
0.00953195
0.00940483
0.00927797
0.00915139
0.00902511
0.00889915
0.00877354
0.00864828
0.00852340
0.00839893
0.00827490
0.00815137
0.00802837
0.00790594
0.00778413
0.00766296
0.00754248
0.00742270
0.00730363
0.00718528
0.00706764
0.00695073
0.00683455
0.00671910
0.00660433
0.00649022
0.00637671
0.00626379
0.00615142
0.00603959
0.00592830
0.00581753
0.00570730
0.00559761
0.00548846
0.00537984
0.00527177
0.00516427
0.00505735
0.00495099
0.00484516
0.00473982
0.00463494
0.00453053
0.00442659
0.00432314
0.00422019
0.00411776
0.00401587
0.00391451
0.00381368
0.00371339
0.00361362
0.00351438
0.00341567
0.00331749
0.00321982
0.00312263
0.00302590
0.00292961
0.00283376
0.00273837
0.00264342
0.00254891
0.00245481
0.00236109
0.00226772
0.00217471
0.00208204
0.00198975
0.00189783
0.00180630
0.00171513
0.00162429
0.00153373
0.00144341
0.00135333
0.00126346
0.00117380
0.00108436
0.00099513
0.00090614
0.00081741
0.00072895
0.00064077
0.00055288
0.00046528
0.00037797
0.00029094
0.00020418
0.00011765
0.00003132
-0.00005485
-0.00014088
-0.00022680
-0.00031262
-0.00039835
-0.00048403
-0.00056968
-0.00065533
-0.00074101
-0.00082671
-0.00091244
-0.00099816
-0.00108384
-0.00116945
-0.00125497
-0.00134037
-0.00142561
-0.00151067
-0.00159550
-0.00168011
-0.00176447
-0.00184857
-0.00193242
-0.00201603
-0.00209940
-0.00218253
-0.00226542
-0.00234808
-0.00243051
-0.00251272
-0.00259470
-0.00267647
-0.00275804
-0.00283944
-0.00292072
-0.00300189
-0.00308298
-0.00316402
-0.00324501
-0.00332598
-0.00340691
-0.00348779
-0.00356863
-0.00364941
-0.00373014
-0.00381079
-0.00389135
-0.00397180
-0.00405212
-0.00413229
-0.00421226
-0.00429199
-0.00437147
-0.00445068
-0.00452960
-0.00460824
-0.00468660
-0.00476468
-0.00484247
-0.00491997
-0.00499720
-0.00507415
-0.00515083
-0.00522724
-0.00530339
-0.00537931
-0.00545500
-0.00553051
-0.00560588
-0.00568112
-0.00575626
-0.00583131
-0.00590627
-0.00598110
-0.00605579
-0.00613032
-0.00620466
-0.00627881
-0.00635276
-0.00642650
-0.00650003
-0.00657332
-0.00664636
-0.00671911
-0.00679153
-0.00686362
-0.00693537
-0.00700676
-0.00707777
-0.00714837
-0.00721853
-0.00728823
-0.00735750
-0.00742633
-0.00749472
-0.00756266
-0.00763015
-0.00769719
-0.00776381
-0.00783008
-0.00789603
-0.00796171
-0.00802714
-0.00809233
-0.00815732
-0.00822210
-0.00828670
-0.00835111
-0.00841532
-0.00847933
-0.00854313
-0.00860671
-0.00867006
-0.00873314
-0.00879596
-0.00885849
-0.00892073
-0.00898264
-0.00904422
-0.00910546
-0.00916632
-0.00922681
-0.00928689
-0.00934653
-0.00940573
-0.00946447
-0.00952274
-0.00958056
-0.00963794
-0.00969489
-0.00975143
-0.00980759
-0.00986337
-0.00991875
-0.00997373
-0.01002829
-0.01008243
-0.01013615
-0.01018946
-0.01024238
-0.01029495
-0.01034720
-0.01039916
-0.01045084
-0.01050223
-0.01055330
-0.01060405
-0.01065445
-0.01070449
-0.01075412
-0.01080330
-0.01085201
-0.01090023
-0.01094792
-0.01099504
-0.01104155
-0.01108742
-0.01113262
-0.01117709
-0.01122083
-0.01126380
-0.01130601
-0.01134746
-0.01138816
-0.01142815
-0.01146744
-0.01150605
-0.01154399
-0.01158129
-0.01161793
-0.01165393
-0.01168929
-0.01172400
-0.01175810
-0.01179156
-0.01182441
-0.01185663
-0.01188822
-0.01191921
-0.01194959
-0.01197938
-0.01200856
-0.01203714
-0.01206514
-0.01209256
-0.01211937
-0.01214557
-0.01217112
-0.01219601
-0.01222021
-0.01224371
-0.01226650
-0.01228854
-0.01230985
-0.01233044
-0.01235032
-0.01236954
-0.01238811
-0.01240607
-0.01242344
-0.01244022
-0.01245643
-0.01247210
-0.01248726
-0.01250193
-0.01251615
-0.01252994
-0.01254334
-0.01255635
-0.01256902
-0.01258135
-0.01259338
-0.01260511
-0.01261655
-0.01262768
-0.01263850
-0.01264898
-0.01265909
-0.01266884
-0.01267822
-0.01268724
-0.01269593
-0.01270427
-0.01271227
-0.01271992
-0.01272720
-0.01273410
-0.01274061
-0.01274669
-0.01275235
-0.01275758
-0.01276240
-0.01276680
-0.01277079
-0.01277437
-0.01277754
-0.01278034
-0.01278279
-0.01278490
-0.01278669
-0.01278815
-0.01278925
-0.01278998
-0.01279033
-0.01279031
-0.01278992
-0.01278914
-0.01278794
-0.01278629
-0.01278417
-0.01278155
-0.01277843
-0.01277482
-0.01277072
-0.01276613
-0.01276105
-0.01275549
-0.01274946
-0.01274299
-0.01273609
-0.01272880
-0.01272115
-0.01271319
-0.01270494
-0.01269644
-0.01268771
-0.01267875
-0.01266958
-0.01266021
-0.01265066
-0.01264094
-0.01263111
-0.01262118
-0.01261118
-0.01260112
-0.01259102
-0.01258090
-0.01257076
-0.01256060
-0.01255042
-0.01254022
-0.01253000
-0.01251974
-0.01250942
-0.01249902
-0.01248851
-0.01247786
-0.01246704
-0.01245605
-0.01244486
-0.01243345
-0.01242182
-0.01240997
-0.01239790
-0.01238563
-0.01237316
-0.01236055
-0.01234782
-0.01233501
-0.01232215
-0.01230926
-0.01229636
-0.01228348
-0.01227065
-0.01225790
-0.01224524
-0.01223268
-0.01222020
-0.01220779
-0.01219543
-0.01218313
-0.01217087
-0.01215864
-0.01214643
-0.01213425
-0.01212209
-0.01210994
-0.01209780
-0.01208565
-0.01207349
-0.01206131
-0.01204910
-0.01203686
-0.01202459
-0.01201227
-0.01199992
-0.01198754
-0.01197514
-0.01196272
-0.01195026
-0.01193775
-0.01192517
-0.01191253
-0.01189985
-0.01188713
-0.01187442
-0.01186172
-0.01184907
-0.01183647
-0.01182395
-0.01181149
-0.01179907
-0.01178666
-0.01177424
-0.01176182
-0.01174940
-0.01173698
-0.01172455
-0.01171212
-0.01169968
-0.01168727
-0.01167489
-0.01166253
-0.01165019
-0.01163786
-0.01162553
-0.01161319
-0.01160084
-0.01158847
-0.01157608
-0.01156366
-0.01155122
-0.01153877
-0.01152631
-0.01151384
-0.01150139
-0.01148893
-0.01147647
-0.01146399
-0.01145152
-0.01143906
-0.01142666
-0.01141434
-0.01140214
-0.01139008
-0.01137820
-0.01136650
-0.01135497
-0.01134361
-0.01133239
-0.01132131
-0.01131038
-0.01129960
-0.01128900
-0.01127863
-0.01126848
-0.01125857
-0.01124886
-0.01123934
-0.01122997
-0.01122074
-0.01121165
-0.01120268
-0.01119381
-0.01118502
-0.01117628
-0.01116758
-0.01115892
-0.01115030
-0.01114173
-0.01113323
-0.01112481
-0.01111651
-0.01110835
-0.01110036
-0.01109255
-0.01108493
-0.01107753
-0.01107037
-0.01106345
-0.01105677
-0.01105029
-0.01104400
-0.01103787
-0.01103189
-0.01102605
-0.01102037
-0.01101486
-0.01100956
-0.01100445
-0.01099953
-0.01099480
-0.01099024
-0.01098588
-0.01098168
-0.01097766
-0.01097380
-0.01097010
-0.01096654
-0.01096311
-0.01095981
-0.01095664
-0.01095362
-0.01095077
-0.01094810
-0.01094561
-0.01094333
-0.01094125
-0.01093938
-0.01093773
-0.01093627
-0.01093500
-0.01093393
-0.01093305
-0.01093239
-0.01093196
-0.01093175
-0.01093174
-0.01093188
-0.01093212
-0.01093240
-0.01093266
-0.01093285
-0.01093292
-0.01093287
-0.01093268
-0.01093234
-0.01093183
-0.01093112
-0.01093021
-0.01092907
-0.01092771
-0.01092611
-0.01092430
-0.01092229
-0.01092010
-0.01091774
-0.01091519
-0.01091243
-0.01090945
-0.01090626
-0.01090288
-0.01089934
-0.01089563
-0.01089172
-0.01088761
-0.01088327
-0.01087867
-0.01087381
-0.01086869
-0.01086334
-0.01085776
-0.01085193
-0.01084584
-0.01083943
-0.01083268
-0.01082556
-0.01081805
-0.01081015
-0.01080187
-0.01079322
-0.01078423
-0.01077493
-0.01076531
-0.01075539
-0.01074516
-0.01073460
-0.01072369
-0.01071247
-0.01070095
-0.01068916
-0.01067711
-0.01066483
-0.01065235
-0.01063972
-0.01062694
-0.01061404
-0.01060103
-0.01058792
-0.01057472
-0.01056143
-0.01054807
-0.01053462
-0.01052109
-0.01050746
-0.01049373
-0.01047993
-0.01046613
-0.01045235
-0.01043862
-0.01042492
-0.01041125
-0.01039760
-0.01038398
-0.01037040
-0.01035687
-0.01034341
-0.01033002
-0.01031670
-0.01030345
-0.01029029
-0.01027722
-0.01026426
-0.01025142
-0.01023873
-0.01022621
-0.01021387
-0.01020174
-0.01018984
-0.01017819
-0.01016682
-0.01015578
-0.01014507
-0.01013473
-0.01012474
-0.01011508
-0.01010571
-0.01009663
-0.01008782
-0.01007931
-0.01007111
-0.01006325
-0.01005575
-0.01004858
-0.01004174
-0.01003523
-0.01002906
-0.01002324
-0.01001779
-0.01001272
-0.01000804
-0.01000376
-0.00999989
-0.00999645
-0.00999345
-0.00999090
-0.00998881
-0.00998719
-0.00998607
-0.00998544
-0.00998533
-0.00998573
-0.00998665
-0.00998808
-0.00999003
-0.00999248
-0.00999543
-0.00999888
-0.01000282
-0.01000723
-0.01001210
-0.01001741
-0.01002318
-0.01002940
-0.01003607
-0.01004315
-0.01005064
-0.01005851
-0.01006676
-0.01007537
-0.01008433
-0.01009362
-0.01010323
-0.01011314
-0.01012333
-0.01013380
-0.01014453
-0.01015554
-0.01016681
-0.01017835
-0.01019015
-0.01020220
-0.01021448
-0.01022698
-0.01023968
-0.01025258
-0.01026570
-0.01027902
-0.01029252
-0.01030618
-0.01031999
-0.01033393
-0.01034799
-0.01036216
-0.01037642
-0.01039077
-0.01040519
-0.01041965
-0.01043411
-0.01044856
-0.01046298
-0.01047735
-0.01049166
-0.01050588
-0.01051996
-0.01053386
-0.01054756
-0.01056105
-0.01057432
-0.01058733
-0.01060008
-0.01061252
-0.01062465
-0.01063647
-0.01064799
-0.01065926
-0.01067030
-0.01068115
-0.01069181
-0.01070229
-0.01071259
-0.01072269
-0.01073259
-0.01074228
-0.01075176
-0.01076100
-0.01076998
-0.01077867
-0.01078702
-0.01079502
-0.01080262
-0.01080981
-0.01081655
-0.01082283
-0.01082865
-0.01083398
-0.01083881
-0.01084314
-0.01084694
-0.01085022
-0.01085295
-0.01085514
-0.01085682
-0.01085801
-0.01085872
-0.01085896
-0.01085874
-0.01085804
-0.01085688
-0.01085526
-0.01085318
-0.01085063
-0.01084760
-0.01084407
-0.01084002
-0.01083545
-0.01083037
-0.01082475
-0.01081858
-0.01081185
-0.01080457
-0.01079671
-0.01078828
-0.01077925
-0.01076959
-0.01075925
-0.01074822
-0.01073649
-0.01072403
-0.01071084
-0.01069690
-0.01068219
-0.01066669
-0.01065040
-0.01063331
-0.01061537
-0.01059657
-0.01057690
-0.01055641
-0.01053511
-0.01051303
-0.01049021
-0.01046669
-0.01044248
-0.01041759
-0.01039202
-0.01036573
-0.01033874
-0.01031104
-0.01028260
-0.01025339
-0.01022338
-0.01019255
-0.01016089
-0.01012839
-0.01009506
-0.01006096
-0.01002613
-0.00999058
-0.00995433
-0.00991735
-0.00987965
-0.00984124
-0.00980211
-0.00976224
-0.00972163
-0.00968027
-0.00963817
-0.00959535
-0.00955184
-0.00950767
-0.00946287
-0.00941749
-0.00937157
-0.00932513
-0.00927822
-0.00923085
-0.00918307
-0.00913492
-0.00908640
-0.00903755
-0.00898839
-0.00893893
-0.00888917
-0.00883912
-0.00878877
-0.00873813
-0.00868720
-0.00863599
-0.00858453
-0.00853283
-0.00848092
-0.00842883
-0.00837657
-0.00832413
-0.00827152
-0.00821875
-0.00816582
-0.00811276
-0.00805960
-0.00800638
-0.00795310
-0.00789978
-0.00784643
-0.00779304
-0.00773964
-0.00768624
-0.00763287
-0.00757955
-0.00752634
-0.00747325
-0.00742034
-0.00736763
-0.00731516
-0.00726299
-0.00721112
-0.00715959
-0.00710841
-0.00705760
-0.00700718
-0.00695716
-0.00690755
-0.00685837
-0.00680960
-0.00676125
-0.00671329
-0.00666571
-0.00661854
-0.00657179
-0.00652547
-0.00647960
-0.00643418
-0.00638923
-0.00634478
-0.00630089
-0.00625759
-0.00621491
-0.00617290
-0.00613161
-0.00609109
-0.00605139
-0.00601256
-0.00597462
-0.00593762
-0.00590157
-0.00586651
-0.00583243
-0.00579937
-0.00576736
-0.00573643
-0.00570660
-0.00567786
-0.00565021
-0.00562361
-0.00559802
-0.00557342
-0.00554976
-0.00552701
-0.00550512
-0.00548406
-0.00546378
-0.00544425
-0.00542542
-0.00540727
-0.00538975
-0.00537280
-0.00535640
-0.00534052
-0.00532515
-0.00531025
-0.00529582
-0.00528182
-0.00526823
-0.00525504
-0.00524225
-0.00522987
-0.00521790
-0.00520638
-0.00519532
-0.00518471
-0.00517457
-0.00516492
-0.00515576
-0.00514710
-0.00513893
-0.00513119
-0.00512385
-0.00511688
-0.00511029
-0.00510408
-0.00509823
-0.00509274
-0.00508759
-0.00508276
-0.00507823
-0.00507400
-0.00507008
-0.00506646
-0.00506315
-0.00506013
-0.00505737
-0.00505487
-0.00505260
-0.00505055
-0.00504872
-0.00504713
-0.00504580
-0.00504475
-0.00504400
-0.00504356
-0.00504342
-0.00504360
-0.00504408
-0.00504489
-0.00504605
-0.00504757
-0.00504943
-0.00505162
-0.00505414
-0.00505696
-0.00506004
-0.00506335
-0.00506683
-0.00507046
-0.00507415
-0.00507787
-0.00508158
-0.00508527
-0.00508891
-0.00509250
-0.00509603
-0.00509950
-0.00510288
-0.00510613
-0.00510923
-0.00511215
-0.00511490
-0.00511747
-0.00511987
-0.00512213
-0.00512426
-0.00512630
-0.00512823
-0.00513005
-0.00513176
-0.00513332
-0.00513472
-0.00513594
-0.00513696
-0.00513776
-0.00513835
-0.00513868
-0.00513874
-0.00513848
-0.00513791
-0.00513700
-0.00513579
-0.00513429
-0.00513252
-0.00513048
-0.00512816
-0.00512556
-0.00512269
-0.00511954
-0.00511610
-0.00511234
-0.00510822
-0.00510373
-0.00509885
-0.00509359
-0.00508799
-0.00508207
-0.00507585
-0.00506933
-0.00506253
-0.00505547
-0.00504819
-0.00504072
-0.00503310
-0.00502536
-0.00501751
-0.00500955
-0.00500147
-0.00499326
-0.00498491
-0.00497637
-0.00496765
-0.00495873
-0.00494962
-0.00494032
-0.00493081
-0.00492108
-0.00491110
-0.00490085
-0.00489032
-0.00487949
-0.00486836
-0.00485691
-0.00484515
-0.00483306
-0.00482065
-0.00480788
-0.00479472
-0.00478115
-0.00476715
-0.00475271
-0.00473784
-0.00472252
-0.00470676
-0.00469055
-0.00467389
-0.00465678
-0.00463921
-0.00462122
-0.00460281
-0.00458403
-0.00456495
-0.00454559
-0.00452597
-0.00450609
-0.00448595
-0.00446555
-0.00444487
-0.00442391
-0.00440263
-0.00438101
-0.00435907
-0.00433681
-0.00431423
-0.00429135
-0.00426816
-0.00424468
-0.00422090
-0.00419683
-0.00417248
-0.00414786
-0.00412297
-0.00409783
-0.00407246
-0.00404686
-0.00402106
-0.00399507
-0.00396889
-0.00394256
-0.00391609
-0.00388952
-0.00386286
-0.00383613
-0.00380937
-0.00378259
-0.00375582
-0.00372907
-0.00370234
-0.00367565
-0.00364902
-0.00362249
-0.00359609
-0.00356984
-0.00354373
-0.00351776
-0.00349191
-0.00346620
-0.00344061
-0.00341516
-0.00338983
-0.00336464
-0.00333956
-0.00331460
-0.00328973
-0.00326496
-0.00324030
-0.00321577
-0.00319143
-0.00316730
-0.00314340
-0.00311975
-0.00309639
-0.00307334
-0.00305065
-0.00302833
-0.00300641
-0.00298489
-0.00296381
-0.00294322
-0.00292313
-0.00290355
-0.00288448
-0.00286594
-0.00284792
-0.00283045
-0.00281354
-0.00279721
-0.00278143
-0.00276621
-0.00275158
-0.00273751
-0.00272401
-0.00271104
-0.00269860
-0.00268668
-0.00267529
-0.00266441
-0.00265402
-0.00264410
-0.00263463
-0.00262559
-0.00261697
-0.00260877
-0.00260099
-0.00259362
-0.00258666
-0.00258013
-0.00257402
-0.00256831
-0.00256299
-0.00255804
-0.00255346
-0.00254922
-0.00254531
-0.00254171
-0.00253838
-0.00253525
-0.00253227
-0.00252939
-0.00252661
-0.00252390
-0.00252125
-0.00251862
-0.00251597
-0.00251327
-0.00251048
-0.00250761
-0.00250467
-0.00250166
-0.00249856
-0.00249534
-0.00249197
-0.00248841
-0.00248464
-0.00248069
-0.00247658
-0.00247236
-0.00246804
-0.00246365
-0.00245920
-0.00245471
-0.00245020
-0.00244568
-0.00244115
-0.00243663
-0.00243212
-0.00242760
-0.00242308
-0.00241853
-0.00241394
-0.00240930
-0.00240462
-0.00239990
-0.00239518
-0.00239046
-0.00238575
-0.00238101
-0.00237622
-0.00237137
-0.00236646
-0.00236150
-0.00235650
-0.00235146
-0.00234636
-0.00234117
-0.00233587
-0.00233043
-0.00232484
-0.00231909
-0.00231318
-0.00230709
-0.00230084
-0.00229442
-0.00228784
-0.00228113
-0.00227427
-0.00226729
-0.00226020
-0.00225299
-0.00224567
-0.00223823
-0.00223069
-0.00222307
-0.00221537
-0.00220759
-0.00219973
-0.00219177
-0.00218371
-0.00217553
-0.00216724
-0.00215882
-0.00215025
-0.00214150
-0.00213254
-0.00212340
-0.00211407
-0.00210458
-0.00209490
-0.00208504
-0.00207499
-0.00206476
-0.00205436
-0.00204377
-0.00203299
-0.00202200
-0.00201083
-0.00199947
-0.00198796
-0.00197631
-0.00196451
-0.00195256
-0.00194044
-0.00192815
-0.00191568
-0.00190303
-0.00189020
-0.00187718
-0.00186394
-0.00185047
-0.00183680
-0.00182292
-0.00180884
-0.00179453
-0.00177998
-0.00176517
-0.00175011
-0.00173479
-0.00171922
-0.00170340
-0.00168732
-0.00167098
-0.00165436
-0.00163742
-0.00162016
-0.00160257
-0.00158464
-0.00156639
-0.00154780
-0.00152889
-0.00150967
-0.00149014
-0.00147033
-0.00145022
-0.00142984
-0.00140917
-0.00138823
-0.00136702
-0.00134553
-0.00132374
-0.00130163
-0.00127920
-0.00125644
-0.00123334
-0.00120983
-0.00118589
-0.00116149
-0.00113662
-0.00111125
-0.00108535
-0.00105891
-0.00103191
-0.00100435
-0.00097625
-0.00094762
-0.00091846
-0.00088882
-0.00085870
-0.00082813
-0.00079713
-0.00076571
-0.00073391
-0.00070175
-0.00066924
-0.00063642
-0.00060332
-0.00056993
-0.00053627
-0.00050233
-0.00046813
-0.00043366
-0.00039891
-0.00036389
-0.00032855
-0.00029290
-0.00025692
-0.00022064
-0.00018406
-0.00014720
-0.00011007
-0.00007268
-0.00003503
0.00000286
0.00004098
0.00007933
0.00011788
0.00015663
0.00019560
0.00023477
0.00027416
0.00031374
0.00035349
0.00039336
0.00043330
0.00047323
0.00051311
0.00055291
0.00059260
0.00063216
0.00067155
0.00071071
0.00074958
0.00078808
0.00082619
0.00086388
0.00090113
0.00093795
0.00097430
0.00101017
0.00104553
0.00108034
0.00111459
0.00114828
0.00118142
0.00121402
0.00124607
0.00127758
0.00130856
0.00133898
0.00136883
0.00139811
0.00142680
0.00145489
0.00148237
0.00150920
0.00153536
0.00156083
0.00158559
0.00160962
0.00163289
0.00165538
0.00167704
0.00169785
0.00171774
0.00173665
0.00175455
0.00177143
0.00178729
0.00180214
0.00181598
0.00182883
0.00184071
0.00185158
0.00186142
0.00187018
0.00187780
0.00188428
0.00188959
0.00189376
0.00189679
0.00189869
0.00189947
0.00189915
0.00189774
0.00189521
0.00189157
0.00188680
0.00188088
0.00187381
0.00186556
0.00185610
0.00184536
0.00183333
0.00181995
0.00180522
0.00178911
0.00177161
0.00175272
0.00173245
0.00171084
0.00168795
0.00166382
0.00163847
0.00161191
0.00158413
0.00155512
0.00152486
0.00149335
0.00146058
0.00142659
0.00139140
0.00135507
0.00131764
0.00127914
0.00123960
0.00119905
0.00115757
0.00111521
0.00107205
0.00102817
0.00098359
0.00093836
0.00089247
0.00084594
0.00079878
0.00075100
0.00070262
0.00065364
0.00060410
0.00055400
0.00050338
0.00045224
0.00040060
0.00034845
0.00029582
0.00024276
0.00018932
0.00013558
0.00008159
0.00002741
-0.00002694
-0.00008142
-0.00013601
-0.00019065
-0.00024529
-0.00029987
-0.00035435
-0.00040866
-0.00046277
-0.00051663
-0.00057018
-0.00062339
-0.00067622
-0.00072863
-0.00078058
-0.00083204
-0.00088299
-0.00093340
-0.00098328
-0.00103263
-0.00108144
-0.00112968
-0.00117733
-0.00122436
-0.00127075
-0.00131648
-0.00136153
-0.00140583
-0.00144936
-0.00149204
-0.00153382
-0.00157464
-0.00161445
-0.00165321
-0.00169086
-0.00172737
-0.00176269
-0.00179673
-0.00182945
-0.00186078
-0.00189068
-0.00191914
-0.00194616
-0.00197172
-0.00199584
-0.00201849
-0.00203969
-0.00205944
-0.00207774
-0.00209461
-0.00211003
-0.00212401
-0.00213656
-0.00214769
-0.00215743
-0.00216577
-0.00217272
-0.00217829
-0.00218248
-0.00218531
-0.00218680
-0.00218696
-0.00218581
-0.00218336
-0.00217961
-0.00217457
-0.00216821
-0.00216052
-0.00215150
-0.00214114
-0.00212943
-0.00211636
-0.00210191
-0.00208610
-0.00206891
-0.00205030
-0.00203026
-0.00200876
-0.00198578
-0.00196133
-0.00193541
-0.00190803
-0.00187920
-0.00184894
-0.00181725
-0.00178415
-0.00174965
-0.00171377
-0.00167652
-0.00163789
-0.00159792
-0.00155665
-0.00151413
-0.00147040
-0.00142546
-0.00137934
-0.00133203
-0.00128357
-0.00123397
-0.00118328
-0.00113153
-0.00107878
-0.00102511
-0.00097056
-0.00091519
-0.00085901
-0.00080211
-0.00074452
-0.00068630
-0.00062751
-0.00056819
-0.00050839
-0.00044817
-0.00038755
-0.00032659
-0.00026532
-0.00020378
-0.00014199
-0.00008002
-0.00001793
0.00004420
0.00010628
0.00016825
0.00023004
0.00029161
0.00035292
0.00041397
0.00047474
0.00053521
0.00059534
0.00065512
0.00071453
0.00077354
0.00083211
0.00089018
0.00094767
0.00100456
0.00106082
0.00111643
0.00117136
0.00122560
0.00127917
0.00133208
0.00138432
0.00143589
0.00148675
0.00153690
0.00158632
0.00163499
0.00168290
0.00173002
0.00177632
0.00182173
0.00186619
0.00190968
0.00195216
0.00199361
0.00203403
0.00207342
0.00211177
0.00214912
0.00218548
0.00222088
0.00225531
0.00228879
0.00232131
0.00235287
0.00238345
0.00241302
0.00244158
0.00246919
0.00249589
0.00252173
0.00254676
0.00257104
0.00259461
0.00261753
0.00263982
0.00266152
0.00268263
0.00270317
0.00272312
0.00274248
0.00276122
0.00277931
0.00279672
0.00281343
0.00282942
0.00284471
0.00285930
0.00287320
0.00288642
0.00289898
0.00291091
0.00292225
0.00293302
0.00294325
0.00295297
0.00296219
0.00297091
0.00297911
0.00298677
0.00299385
0.00300036
0.00300629
0.00301165
0.00301646
0.00302072
0.00302446
0.00302768
0.00303039
0.00303260
0.00303434
0.00303561
0.00303646
0.00303688
0.00303689
0.00303647
0.00303558
0.00303420
0.00303231
0.00302990
0.00302700
0.00302361
0.00301975
0.00301540
0.00301059
0.00300533
0.00299965
0.00299356
0.00298710
0.00298026
0.00297306
0.00296548
0.00295754
0.00294923
0.00294058
0.00293161
0.00292235
0.00291283
0.00290308
0.00289312
0.00288299
0.00287269
0.00286224
0.00285164
0.00284090
0.00283002
0.00281899
0.00280781
0.00279647
0.00278495
0.00277328
0.00276146
0.00274952
0.00273746
0.00272530
0.00271301
0.00270060
0.00268806
0.00267540
0.00266264
0.00264981
0.00263697
0.00262412
0.00261128
0.00259845
0.00258565
0.00257292
0.00256031
0.00254785
0.00253555
0.00252341
0.00251146
0.00249971
0.00248819
0.00247694
0.00246599
0.00245534
0.00244501
0.00243500
0.00242532
0.00241597
0.00240694
0.00239816
0.00238961
0.00238125
0.00237308
0.00236507
0.00235723
0.00234957
0.00234210
0.00233485
0.00232784
0.00232107
0.00231455
0.00230831
0.00230236
0.00229672
0.00229141
0.00228645
0.00228186
0.00227767
0.00227387
0.00227045
0.00226742
0.00226477
0.00226250
0.00226060
0.00225907
0.00225790
0.00225710
0.00225667
0.00225661
0.00225691
0.00225755
0.00225852
0.00225979
0.00226133
0.00226312
0.00226512
0.00226727
0.00226953
0.00227185
0.00227418
0.00227651
0.00227883
0.00228114
0.00228343
0.00228571
0.00228800
0.00229030
0.00229262
0.00229497
0.00229737
0.00229985
0.00230242
0.00230509
0.00230788
0.00231080
0.00231388
0.00231713
0.00232056
0.00232415
0.00232789
0.00233176
0.00233576
0.00233985
0.00234401
0.00234822
0.00235245
0.00235665
0.00236076
0.00236476
0.00236860
0.00237226
0.00237571
0.00237896
0.00238202
0.00238491
0.00238764
0.00239023
0.00239266
0.00239493
0.00239702
0.00239892
0.00240063
0.00240212
0.00240333
0.00240425
0.00240487
0.00240519
0.00240524
0.00240503
0.00240458
0.00240389
0.00240296
0.00240182
0.00240049
0.00239901
0.00239739
0.00239565
0.00239376
0.00239170
0.00238944
0.00238693
0.00238416
0.00238110
0.00237774
0.00237408
0.00237011
0.00236581
0.00236115
0.00235614
0.00235078
0.00234509
0.00233908
0.00233276
0.00232617
0.00231929
0.00231213
0.00230465
0.00229685
0.00228871
0.00228024
0.00227144
0.00226231
0.00225286
0.00224309
0.00223300
0.00222262
0.00221195
0.00220098
0.00218973
0.00217816
0.00216629
0.00215407
0.00214149
0.00212851
0.00211510
0.00210124
0.00208695
0.00207222
0.00205709
0.00204156
0.00202561
0.00200923
0.00199239
0.00197508
0.00195732
0.00193910
0.00192043
0.00190131
0.00188175
0.00186177
0.00184139
0.00182064
0.00179954
0.00177811
0.00175638
0.00173436
0.00171207
0.00168952
0.00166674
0.00164373
0.00162050
0.00159706
0.00157342
0.00154959
0.00152556
0.00150134
0.00147688
0.00145219
0.00142725
0.00140205
0.00137660
0.00135089
0.00132492
0.00129868
0.00127218
0.00124544
0.00121848
0.00119133
0.00116399
0.00113649
0.00110882
0.00108098
0.00105296
0.00102474
0.00099634
0.00096776
0.00093906
0.00091026
0.00088139
0.00085247
0.00082353
0.00079459
0.00076564
0.00073670
0.00070779
0.00067894
0.00065016
0.00062145
0.00059282
0.00056424
0.00053568
0.00050713
0.00047859
0.00045003
0.00042146
0.00039284
0.00036413
0.00033531
0.00030637
0.00027731
0.00024818
0.00021903
0.00018992
0.00016088
0.00013189
0.00010295
0.00007403
0.00004511
0.00001618
-0.00001275
-0.00004165
-0.00007051
-0.00009928
-0.00012795
-0.00015647
-0.00018481
-0.00021294
-0.00024085
-0.00026852
-0.00029592
-0.00032305
-0.00034991
-0.00037651
-0.00040288
-0.00042906
-0.00045507
-0.00048093
-0.00050666
-0.00053232
-0.00055792
-0.00058351
-0.00060911
-0.00063472
-0.00066034
-0.00068598
-0.00071160
-0.00073718
-0.00076272
-0.00078822
-0.00081368
-0.00083907
-0.00086437
-0.00088955
-0.00091458
-0.00093945
-0.00096413
-0.00098861
-0.00101284
-0.00103681
-0.00106050
-0.00108387
-0.00110693
-0.00112967
-0.00115207
-0.00117415
-0.00119591
-0.00121736
-0.00123848
-0.00125924
-0.00127960
-0.00129954
-0.00131905
-0.00133810
-0.00135669
-0.00137481
-0.00139246
-0.00140962
-0.00142626
-0.00144236
-0.00145792
-0.00147293
-0.00148738
-0.00150129
-0.00151466
-0.00152753
-0.00153990
-0.00155176
-0.00156310
-0.00157390
-0.00158415
-0.00159385
-0.00160297
-0.00161150
-0.00161942
-0.00162672
-0.00163340
-0.00163949
-0.00164502
-0.00165004
-0.00165457
-0.00165864
-0.00166230
-0.00166556
-0.00166843
-0.00167089
-0.00167293
-0.00167453
-0.00167568
-0.00167637
-0.00167659
-0.00167633
-0.00167561
-0.00167442
-0.00167278
-0.00167069
-0.00166818
-0.00166530
-0.00166206
-0.00165850
-0.00165461
-0.00165038
-0.00164578
-0.00164080
-0.00163542
-0.00162962
-0.00162339
-0.00161672
-0.00160958
-0.00160197
-0.00159386
-0.00158526
-0.00157618
-0.00156663
-0.00155664
-0.00154622
-0.00153541
-0.00152425
-0.00151277
-0.00150101
-0.00148900
-0.00147676
-0.00146431
-0.00145165
-0.00143880
-0.00142576
-0.00141254
-0.00139915
-0.00138559
-0.00137186
-0.00135795
-0.00134386
-0.00132954
-0.00131500
-0.00130023
-0.00128522
-0.00126997
-0.00125450
-0.00123882
-0.00122295
-0.00120690
-0.00119067
-0.00117429
-0.00115778
-0.00114117
-0.00112451
-0.00110783
-0.00109120
-0.00107467
-0.00105826
-0.00104201
-0.00102595
-0.00101012
-0.00099455
-0.00097928
-0.00096432
-0.00094967
-0.00093531
-0.00092125
-0.00090750
-0.00089408
-0.00088104
-0.00086842
-0.00085626
-0.00084458
-0.00083339
-0.00082267
-0.00081240
-0.00080254
-0.00079306
-0.00078392
-0.00077507
-0.00076649
-0.00075817
-0.00075010
-0.00074225
-0.00073464
-0.00072726
-0.00072015
-0.00071334
-0.00070689
-0.00070084
-0.00069524
-0.00069009
-0.00068541
-0.00068120
-0.00067745
-0.00067419
-0.00067140
-0.00066908
-0.00066725
-0.00066589
-0.00066502
-0.00066463
-0.00066473
-0.00066535
-0.00066650
-0.00066819
-0.00067041
-0.00067312
-0.00067629
-0.00067989
-0.00068388
-0.00068826
-0.00069299
-0.00069808
-0.00070353
-0.00070933
-0.00071547
-0.00072190
-0.00072860
-0.00073553
-0.00074268
-0.00075003
-0.00075757
-0.00076530
-0.00077322
-0.00078131
-0.00078957
-0.00079801
-0.00080661
-0.00081538
-0.00082431
-0.00083339
-0.00084262
-0.00085200
-0.00086150
-0.00087110
-0.00088077
-0.00089051
-0.00090028
-0.00091004
-0.00091974
-0.00092933
-0.00093880
-0.00094810
-0.00095720
-0.00096606
-0.00097466
-0.00098298
-0.00099100
-0.00099869
-0.00100601
-0.00101295
-0.00101951
-0.00102571
-0.00103157
-0.00103709
-0.00104230
-0.00104717
-0.00105172
-0.00105593
-0.00105981
-0.00106333
-0.00106650
-0.00106928
-0.00107166
-0.00107363
-0.00107516
-0.00107622
-0.00107679
-0.00107682
-0.00107628
-0.00107514
-0.00107342
-0.00107112
-0.00106825
-0.00106480
-0.00106073
-0.00105602
-0.00105064
-0.00104462
-0.00103796
-0.00103066
-0.00102272
-0.00101414
-0.00100492
-0.00099505
-0.00098455
-0.00097344
-0.00096174
-0.00094950
-0.00093676
-0.00092352
-0.00090980
-0.00089557
-0.00088086
-0.00086566
-0.00084999
-0.00083386
-0.00081729
-0.00080030
-0.00078290
-0.00076511
-0.00074695
-0.00072845
-0.00070966
-0.00069059
-0.00067124
-0.00065159
-0.00063161
-0.00061130
-0.00059064
-0.00056961
-0.00054823
-0.00052650
-0.00050443
-0.00048200
-0.00045920
-0.00043601
-0.00041242
-0.00038842
-0.00036404
-0.00033928
-0.00031421
-0.00028887
-0.00026331
-0.00023760
-0.00021178
-0.00018589
-0.00015994
-0.00013393
-0.00010787
-0.00008175
-0.00005559
-0.00002939
-0.00000316
0.00002310
0.00004937
0.00007565
0.00010191
0.00012812
0.00015426
0.00018033
0.00020632
0.00023222
0.00025803
0.00028373
0.00030932
0.00033478
0.00036007
0.00038519
0.00041012
0.00043486
0.00045940
0.00048371
0.00050777
0.00053158
0.00055512
0.00057841
0.00060142
0.00062412
0.00064649
0.00066852
0.00069020
0.00071153
0.00073250
0.00075313
0.00077343
0.00079340
0.00081306
0.00083241
0.00085146
0.00087016
0.00088850
0.00090643
0.00092393
0.00094101
0.00095766
0.00097389
0.00098970
0.00100509
0.00102009
0.00103469
0.00104892
0.00106277
0.00107623
0.00108929
0.00110197
0.00111423
0.00112606
0.00113742
0.00114828
0.00115860
0.00116838
0.00117765
0.00118643
0.00119477
0.00120267
0.00121016
0.00121723
0.00122390
0.00123018
0.00123607
0.00124157
0.00124666
0.00125131
0.00125552
0.00125928
0.00126263
0.00126560
0.00126819
0.00127039
0.00127220
0.00127363
0.00127469
0.00127539
0.00127577
0.00127584
0.00127561
0.00127506
0.00127417
0.00127291
0.00127125
0.00126913
0.00126653
0.00126342
0.00125980
0.00125565
0.00125099
0.00124582
0.00124015
0.00123399
0.00122736
0.00122025
0.00121271
0.00120478
0.00119651
0.00118795
0.00117916
0.00117016
0.00116099
0.00115164
0.00114213
0.00113245
0.00112263
0.00111268
0.00110261
0.00109244
0.00108219
0.00107190
0.00106158
0.00105127
0.00104097
0.00103067
0.00102036
0.00101004
0.00099970
0.00098935
0.00097900
0.00096864
0.00095827
0.00094785
0.00093739
0.00092686
0.00091625
0.00090555
0.00089473
0.00088379
0.00087272
0.00086154
0.00085027
0.00083891
0.00082745
0.00081591
0.00080427
0.00079257
0.00078085
0.00076914
0.00075747
0.00074586
0.00073429
0.00072277
0.00071131
0.00069992
0.00068861
0.00067737
0.00066621
0.00065512
0.00064408
0.00063310
0.00062214
0.00061120
0.00060024
0.00058925
0.00057823
0.00056719
0.00055613
0.00054508
0.00053404
0.00052305
0.00051210
0.00050120
0.00049035
0.00047957
0.00046889
0.00045829
0.00044778
0.00043734
0.00042696
0.00041667
0.00040651
0.00039650
0.00038668
0.00037705
0.00036764
0.00035849
0.00034963
0.00034108
0.00033284
0.00032488
0.00031721
0.00030984
0.00030279
0.00029609
0.00028975
0.00028377
0.00027813
0.00027281
0.00026779
0.00026306
0.00025858
0.00025435
0.00025037
0.00024662
0.00024314
0.00023997
0.00023713
0.00023466
0.00023256
0.00023083
0.00022945
0.00022842
0.00022772
0.00022736
0.00022736
0.00022776
0.00022858
0.00022982
0.00023151
0.00023365
0.00023626
0.00023936
0.00024297
0.00024707
0.00025165
0.00025670
0.00026220
0.00026812
0.00027444
0.00028113
0.00028815
0.00029551
0.00030317
0.00031112
0.00031933
0.00032778
0.00033644
0.00034528
0.00035431
0.00036352
0.00037293
0.00038253
0.00039233
0.00040231
0.00041246
0.00042278
0.00043327
0.00044394
0.00045478
0.00046578
0.00047694
0.00048825
0.00049970
0.00051127
0.00052297
0.00053479
0.00054674
0.00055881
0.00057098
0.00058327
0.00059564
0.00060810
0.00062062
0.00063316
0.00064573
0.00065835
0.00067100
0.00068370
0.00069642
0.00070916
0.00072194
0.00073475
0.00074758
0.00076044
0.00077333
0.00078624
0.00079916
0.00081206
0.00082495
0.00083783
0.00085071
0.00086355
0.00087634
0.00088906
0.00090168
0.00091418
0.00092657
0.00093881
0.00095091
0.00096286
0.00097463
0.00098618
0.00099749
0.00100852
0.00101927
0.00102970
0.00103981
0.00104956
0.00105893
0.00106791
0.00107648
0.00108462
0.00109235
0.00109966
0.00110656
0.00111305
0.00111914
0.00112481
0.00113007
0.00113493
0.00113937
0.00114339
0.00114700
0.00115017
0.00115291
0.00115519
0.00115702
0.00115838
0.00115928
0.00115972
0.00115969
0.00115919
0.00115822
0.00115676
0.00115482
0.00115238
0.00114940
0.00114587
0.00114177
0.00113707
0.00113175
0.00112576
0.00111911
0.00111177
0.00110377
0.00109509
0.00108574
0.00107567
0.00106490
0.00105340
0.00104119
0.00102828
0.00101469
0.00100045
0.00098561
0.00097021
0.00095430
0.00093789
0.00092099
0.00090360
0.00088574
0.00086740
0.00084857
0.00082924
0.00080941
0.00078907
0.00076819
0.00074678
0.00072483
0.00070231
0.00067919
0.00065543
0.00063101
0.00060593
0.00058018
0.00055378
0.00052672
0.00049901
0.00047066
0.00044166
0.00041199
0.00038168
0.00035072
0.00031916
0.00028702
0.00025433
0.00022114
0.00018748
0.00015339
0.00011892
0.00008410
0.00004896
0.00001353
-0.00002216
-0.00005808
-0.00009418
-0.00013042
-0.00016678
-0.00020324
-0.00023979
-0.00027641
-0.00031310
-0.00034986
-0.00038668
-0.00042355
-0.00046047
-0.00049743
-0.00053442
-0.00057146
-0.00060854
-0.00064564
-0.00068273
-0.00071981
-0.00075686
-0.00079385
-0.00083073
-0.00086750
-0.00090414
-0.00094065
-0.00097701
-0.00101320
-0.00104915
-0.00108483
-0.00112019
-0.00115521
-0.00118988
-0.00122418
-0.00125813
-0.00129171
-0.00132491
-0.00135772
-0.00139012
-0.00142210
-0.00145365
-0.00148477
-0.00151543
-0.00154564
-0.00157543
-0.00160481
-0.00163378
-0.00166235
-0.00169052
-0.00171830
-0.00174570
-0.00177273
-0.00179936
-0.00182557
-0.00185135
-0.00187667
-0.00190151
-0.00192583
-0.00194960
-0.00197278
-0.00199534
-0.00201726
-0.00203853
-0.00205914
-0.00207906
-0.00209829
-0.00211684
-0.00213469
-0.00215184
-0.00216826
-0.00218394
-0.00219887
-0.00221304
-0.00222647
-0.00223915
-0.00225109
-0.00226230
-0.00227276
-0.00228249
-0.00229151
-0.00229982
-0.00230745
-0.00231437
-0.00232060
-0.00232615
-0.00233105
-0.00233531
-0.00233892
-0.00234186
-0.00234415
-0.00234576
-0.00234672
-0.00234705
-0.00234676
-0.00234588
-0.00234444
-0.00234246
-0.00233994
-0.00233688
-0.00233326
-0.00232905
-0.00232426
-0.00231886
-0.00231284
-0.00230620
-0.00229894
-0.00229107
-0.00228261
-0.00227357
-0.00226395
-0.00225380
-0.00224316
-0.00223207
-0.00222060
-0.00220877
-0.00219663
-0.00218420
-0.00217148
-0.00215847
-0.00214516
-0.00213153
-0.00211756
-0.00210325
-0.00208858
-0.00207357
-0.00205820
-0.00204247
-0.00202636
-0.00200986
-0.00199296
-0.00197568
-0.00195804
-0.00194004
-0.00192169
-0.00190296
-0.00188384
-0.00186430
-0.00184435
-0.00182397
-0.00180315
-0.00178187
-0.00176014
-0.00173797
-0.00171537
-0.00169239
-0.00166904
-0.00164536
-0.00162138
-0.00159713
-0.00157262
-0.00154785
-0.00152283
-0.00149756
-0.00147206
-0.00144635
-0.00142045
-0.00139436
-0.00136805
-0.00134151
-0.00131474
-0.00128774
-0.00126048
-0.00123294
-0.00120512
-0.00117699
-0.00114858
-0.00111987
-0.00109088
-0.00106160
-0.00103204
-0.00100220
-0.00097205
-0.00094160
-0.00091083
-0.00087973
-0.00084832
-0.00081661
-0.00078463
-0.00075239
-0.00071993
-0.00068726
-0.00065441
-0.00062139
-0.00058822
-0.00055494
-0.00052157
-0.00048811
-0.00045458
-0.00042098
-0.00038731
-0.00035359
-0.00031980
-0.00028594
-0.00025199
-0.00021794
-0.00018375
-0.00014944
-0.00011501
-0.00008049
-0.00004589
-0.00001121
0.00002351
0.00005828
0.00009308
0.00012790
0.00016274
0.00019756
0.00023235
0.00026708
0.00030174
0.00033630
0.00037074
0.00040504
0.00043918
0.00047315
0.00050693
0.00054052
0.00057393
0.00060717
0.00064024
0.00067312
0.00070579
0.00073824
0.00077048
0.00080250
0.00083431
0.00086592
0.00089734
0.00092856
0.00095957
0.00099038
0.00102098
0.00105138
0.00108157
0.00111155
0.00114129
0.00117078
0.00120001
0.00122898
0.00125768
0.00128613
0.00131433
0.00134226
0.00136992
0.00139729
0.00142432
0.00145101
0.00147731
0.00150320
0.00152867
0.00155373
0.00157838
0.00160265
0.00162653
0.00165003
0.00167317
0.00169596
0.00171846
0.00174069
0.00176272
0.00178457
0.00180622
0.00182769
0.00184898
0.00187012
0.00189116
0.00191215
0.00193311
0.00195405
0.00197500
0.00199595
0.00201689
0.00203783
0.00205875
0.00207964
0.00210051
0.00212132
0.00214206
0.00216274
0.00218332
0.00220378
0.00222410
0.00224426
0.00226428
0.00228415
0.00230386
0.00232342
0.00234280
0.00236201
0.00238107
0.00239999
0.00241879
0.00243747
0.00245606
0.00247455
0.00249293
0.00251118
0.00252931
0.00254733
0.00256526
0.00258315
0.00260102
0.00261890
0.00263680
0.00265473
0.00267268
0.00269066
0.00270864
0.00272661
0.00274454
0.00276241
0.00278018
0.00279784
0.00281535
0.00283274
0.00285001
0.00286718
0.00288428
0.00290131
0.00291828
0.00293519
0.00295203
0.00296881
0.00298553
0.00300220
0.00301881
0.00303536
0.00305183
0.00306821
0.00308447
0.00310063
0.00311667
0.00313262
0.00314847
0.00316424
0.00317996
0.00319566
0.00321137
0.00322710
0.00324286
0.00325866
0.00327448
0.00329032
0.00330617
0.00332202
0.00333790
0.00335381
0.00336978
0.00338580
0.00340186
0.00341794
0.00343402
0.00345008
0.00346609
0.00348204
0.00349793
0.00351375
0.00352948
0.00354510
0.00356057
0.00357587
0.00359096
0.00360581
0.00362043
0.00363482
0.00364897
0.00366291
0.00367663
0.00369014
0.00370345
0.00371655
0.00372945
0.00374215
0.00375464
0.00376693
0.00377900
0.00379085
0.00380246
0.00381380
0.00382483
0.00383553
0.00384589
0.00385590
0.00386555
0.00387481
0.00388365
0.00389204
0.00389998
0.00390747
0.00391453
0.00392115
0.00392733
0.00393306
0.00393830
0.00394300
0.00394711
0.00395058
0.00395338
0.00395552
0.00395700
0.00395783
0.00395801
0.00395754
0.00395642
0.00395464
0.00395217
0.00394903
0.00394523
0.00394077
0.00393566
0.00392990
0.00392347
0.00391635
0.00390853
0.00390001
0.00389075
0.00388072
0.00386989
0.00385825
0.00384579
0.00383249
0.00381834
0.00380335
0.00378751
0.00377084
0.00375335
0.00373508
0.00371607
0.00369636
0.00367599
0.00365497
0.00363329
0.00361099
0.00358808
0.00356458
0.00354049
0.00351580
0.00349052
0.00346466
0.00343821
0.00341120
0.00338363
0.00335555
0.00332701
0.00329804
0.00326866
0.00323888
0.00320870
0.00317810
0.00314708
0.00311564
0.00308380
0.00305158
0.00301901
0.00298612
0.00295295
0.00291952
0.00288588
0.00285207
0.00281814
0.00278410
0.00274998
0.00271575
0.00268141
0.00264696
0.00261242
0.00257782
0.00254319
0.00250852
0.00247383
0.00243914
0.00240446
0.00236982
0.00233525
0.00230074
0.00226629
0.00223190
0.00219756
0.00216328
0.00212903
0.00209482
0.00206064
0.00202649
0.00199236
0.00195824
0.00192412
0.00189000
0.00185592
0.00182189
0.00178794
0.00175408
0.00172035
0.00168676
0.00165332
0.00161999
0.00158677
0.00155363
0.00152060
0.00148769
0.00145490
0.00142226
0.00138975
0.00135740
0.00132523
0.00129326
0.00126150
0.00122995
0.00119863
0.00116755
0.00113672
0.00110612
0.00107576
0.00104564
0.00101575
0.00098609
0.00095664
0.00092741
0.00089841
0.00086967
0.00084119
0.00081303
0.00078521
0.00075777
0.00073073
0.00070409
0.00067786
0.00065204
0.00062663
0.00060167
0.00057719
0.00055319
0.00052971
0.00050674
0.00048431
0.00046240
0.00044105
0.00042026
0.00040006
0.00038048
0.00036152
0.00034317
0.00032542
0.00030825
0.00029163
0.00027554
0.00025996
0.00024490
0.00023034
0.00021627
0.00020266
0.00018946
0.00017666
0.00016424
0.00015221
0.00014054
0.00012924
0.00011830
0.00010775
0.00009759
0.00008783
0.00007848
0.00006953
0.00006097
0.00005280
0.00004497
0.00003749
0.00003032
0.00002345
0.00001683
0.00001045
0.00000425
-0.00000178
-0.00000767
-0.00001344
-0.00001913
-0.00002476
-0.00003034
-0.00003586
-0.00004131
-0.00004669
-0.00005201
-0.00005728
-0.00006253
-0.00006778
-0.00007305
-0.00007838
-0.00008378
-0.00008930
-0.00009494
-0.00010070
-0.00010660
-0.00011263
-0.00011880
-0.00012511
-0.00013153
-0.00013803
-0.00014461
-0.00015125
-0.00015792
-0.00016460
-0.00017129
-0.00017799
-0.00018471
-0.00019145
-0.00019823
-0.00020505
-0.00021192
-0.00021886
-0.00022587
-0.00023299
-0.00024021
-0.00024759
-0.00025514
-0.00026289
-0.00027087
-0.00027910
-0.00028758
-0.00029631
-0.00030526
-0.00031441
-0.00032378
-0.00033338
-0.00034320
-0.00035325
-0.00036350
-0.00037393
-0.00038451
-0.00039519
-0.00040592
-0.00041667
-0.00042739
-0.00043806
-0.00044868
-0.00045926
-0.00046978
-0.00048028
-0.00049073
-0.00050115
-0.00051154
-0.00052189
-0.00053220
-0.00054245
-0.00055263
-0.00056274
-0.00057279
-0.00058281
-0.00059281
-0.00060282
-0.00061285
-0.00062291
-0.00063300
-0.00064311
-0.00065321
-0.00066331
-0.00067338
-0.00068341
-0.00069339
-0.00070332
-0.00071316
-0.00072292
-0.00073257
-0.00074211
-0.00075154
-0.00076086
-0.00077008
-0.00077919
-0.00078819
-0.00079708
-0.00080585
-0.00081449
-0.00082298
-0.00083133
-0.00083956
-0.00084769
-0.00085573
-0.00086369
-0.00087160
-0.00087947
-0.00088732
-0.00089517
-0.00090306
-0.00091102
-0.00091907
-0.00092723
-0.00093553
-0.00094398
-0.00095259
-0.00096137
-0.00097032
-0.00097946
-0.00098879
-0.00099834
-0.00100809
-0.00101806
-0.00102828
-0.00103874
-0.00104945
-0.00106039
-0.00107156
-0.00108295
-0.00109454
-0.00110631
-0.00111825
-0.00113036
-0.00114266
-0.00115517
-0.00116790
-0.00118085
-0.00119401
-0.00120739
-0.00122100
-0.00123488
-0.00124906
-0.00126358
-0.00127847
-0.00129373
-0.00130936
-0.00132537
-0.00134178
-0.00135857
-0.00137576
-0.00139334
-0.00141132
-0.00142967
-0.00144837
-0.00146738
-0.00148668
-0.00150625
-0.00152607
-0.00154613
-0.00156642
-0.00158689
-0.00160752
-0.00162829
-0.00164919
-0.00167018
-0.00169123
-0.00171233
-0.00173347
-0.00175463
-0.00177580
-0.00179695
-0.00181803
-0.00183905
-0.00185997
-0.00188079
-0.00190148
-0.00192201
-0.00194238
-0.00196259
-0.00198267
-0.00200261
-0.00202244
-0.00204216
-0.00206177
-0.00208126
-0.00210062
-0.00211982
-0.00213886
-0.00215774
-0.00217646
-0.00219500
-0.00221329
-0.00223130
-0.00224899
-0.00226633
-0.00228330
-0.00229986
-0.00231601
-0.00233173
-0.00234701
-0.00236185
-0.00237624
-0.00239017
-0.00240363
-0.00241659
-0.00242905
-0.00244099
-0.00245242
-0.00246333
-0.00247372
-0.00248357
-0.00249288
-0.00250165
-0.00250989
-0.00251760
-0.00252480
-0.00253148
-0.00253760
-0.00254316
-0.00254813
-0.00255251
-0.00255627
-0.00255944
-0.00256199
-0.00256393
-0.00256527
-0.00256602
-0.00256617
-0.00256570
-0.00256464
-0.00256296
-0.00256068
-0.00255777
-0.00255425
-0.00255009
-0.00254531
-0.00253995
-0.00253402
-0.00252755
-0.00252057
-0.00251315
-0.00250531
-0.00249712
-0.00248858
-0.00247971
-0.00247049
-0.00246093
-0.00245106
-0.00244088
-0.00243037
-0.00241954
-0.00240838
-0.00239687
-0.00238501
-0.00237278
-0.00236015
-0.00234709
-0.00233356
-0.00231954
-0.00230502
-0.00229002
-0.00227454
-0.00225858
-0.00224214
-0.00222522
-0.00220784
-0.00218999
-0.00217168
-0.00215289
-0.00213363
-0.00211388
-0.00209365
-0.00207297
-0.00205187
-0.00203037
-0.00200852
-0.00198636
-0.00196395
-0.00194132
-0.00191852
-0.00189557
-0.00187252
-0.00184940
-0.00182624
-0.00180306
-0.00177987
-0.00175666
-0.00173345
-0.00171024
-0.00168706
-0.00166395
-0.00164091
-0.00161793
-0.00159502
-0.00157219
-0.00154945
-0.00152682
-0.00150432
-0.00148197
-0.00145978
-0.00143777
-0.00141594
-0.00139430
-0.00137284
-0.00135157
-0.00133048
-0.00130959
-0.00128892
-0.00126848
-0.00124828
-0.00122835
-0.00120870
-0.00118938
-0.00117041
-0.00115181
-0.00113358
-0.00111574
-0.00109828
-0.00108120
-0.00106450
-0.00104819
-0.00103225
-0.00101670
-0.00100152
-0.00098672
-0.00097230
-0.00095827
-0.00094462
-0.00093135
-0.00091845
-0.00090591
-0.00089372
-0.00088187
-0.00087035
-0.00085914
-0.00084824
-0.00083762
-0.00082730
-0.00081729
-0.00080761
-0.00079830
-0.00078938
-0.00078088
-0.00077282
-0.00076520
-0.00075801
-0.00075123
-0.00074483
-0.00073878
-0.00073308
-0.00072773
-0.00072270
-0.00071797
-0.00071353
-0.00070935
-0.00070544
-0.00070178
-0.00069838
-0.00069527
-0.00069246
-0.00068995
-0.00068775
-0.00068582
-0.00068413
-0.00068265
-0.00068136
-0.00068023
-0.00067924
-0.00067834
-0.00067752
-0.00067677
-0.00067610
-0.00067554
-0.00067512
-0.00067484
-0.00067472
-0.00067475
-0.00067493
-0.00067525
-0.00067572
-0.00067633
-0.00067710
-0.00067802
-0.00067909
-0.00068030
-0.00068162
-0.00068304
-0.00068450
-0.00068598
-0.00068743
-0.00068884
-0.00069021
-0.00069158
-0.00069295
-0.00069431
-0.00069565
-0.00069695
-0.00069821
-0.00069940
-0.00070053
-0.00070158
-0.00070257
-0.00070349
-0.00070435
-0.00070514
-0.00070587
-0.00070655
-0.00070717
-0.00070776
-0.00070830
-0.00070883
-0.00070934
-0.00070984
-0.00071032
-0.00071079
-0.00071122
-0.00071161
-0.00071196
-0.00071224
-0.00071244
-0.00071254
-0.00071251
-0.00071231
-0.00071190
-0.00071125
-0.00071034
-0.00070916
-0.00070769
-0.00070590
-0.00070380
-0.00070139
-0.00069866
-0.00069561
-0.00069225
-0.00068858
-0.00068461
-0.00068035
-0.00067579
-0.00067095
-0.00066581
-0.00066039
-0.00065467
-0.00064870
-0.00064248
-0.00063606
-0.00062943
-0.00062262
-0.00061565
-0.00060850
-0.00060118
-0.00059368
-0.00058602
-0.00057820
-0.00057023
-0.00056211
-0.00055386
-0.00054545
-0.00053688
-0.00052813
-0.00051918
-0.00051002
-0.00050064
-0.00049102
-0.00048112
-0.00047090
-0.00046035
-0.00044946
-0.00043821
-0.00042660
-0.00041465
-0.00040236
-0.00038972
-0.00037678
-0.00036356
-0.00035011
-0.00033647
-0.00032267
-0.00030874
-0.00029469
-0.00028053
-0.00026628
-0.00025198
-0.00023767
-0.00022338
-0.00020910
-0.00019486
-0.00018065
-0.00016646
-0.00015229
-0.00013814
-0.00012402
-0.00010997
-0.00009600
-0.00008213
-0.00006835
-0.00005464
-0.00004102
-0.00002749
-0.00001404
-0.00000067
0.00001262
0.00002584
0.00003900
0.00005210
0.00006511
0.00007799
0.00009069
0.00010318
0.00011541
0.00012735
0.00013898
0.00015026
0.00016116
0.00017166
0.00018173
0.00019136
0.00020053
0.00020924
0.00021748
0.00022525
0.00023253
0.00023929
0.00024552
0.00025118
0.00025628
0.00026080
0.00026479
0.00026826
0.00027123
0.00027369
0.00027564
0.00027709
0.00027803
0.00027847
0.00027839
0.00027777
0.00027661
0.00027490
0.00027262
0.00026976
0.00026629
0.00026216
0.00025735
0.00025182
0.00024556
0.00023855
0.00023076
0.00022219
0.00021286
0.00020275
0.00019190
0.00018030
0.00016795
0.00015485
0.00014102
0.00012644
0.00011110
0.00009500
0.00007813
0.00006051
0.00004215
0.00002307
0.00000327
-0.00001722
-0.00003838
-0.00006020
-0.00008267
-0.00010576
-0.00012945
-0.00015373
-0.00017860
-0.00020403
-0.00023004
-0.00025663
-0.00028380
-0.00031157
-0.00033995
-0.00036893
-0.00039852
-0.00042869
-0.00045941
-0.00049064
-0.00052236
-0.00055451
-0.00058706
-0.00061999
-0.00065328
-0.00068688
-0.00072079
-0.00075495
-0.00078933
-0.00082393
-0.00085870
-0.00089363
-0.00092866
-0.00096377
-0.00099890
-0.00103404
-0.00106916
-0.00110424
-0.00113928
-0.00117424
-0.00120909
-0.00124379
-0.00127833
-0.00131270
-0.00134693
-0.00138105
-0.00141508
-0.00144907
-0.00148301
-0.00151688
-0.00155068
-0.00158437
-0.00161795
-0.00165141
-0.00168479
-0.00171809
-0.00175134
-0.00178453
-0.00181768
-0.00185076
-0.00188375
-0.00191663
-0.00194939
-0.00198203
-0.00201454
-0.00204688
-0.00207900
-0.00211089
-0.00214250
-0.00217379
-0.00220474
-0.00223530
-0.00226546
-0.00229520
-0.00232450
-0.00235338
-0.00238184
-0.00240989
-0.00243756
-0.00246484
-0.00249170
-0.00251815
-0.00254418
-0.00256979
-0.00259499
-0.00261979
-0.00264415
-0.00266807
-0.00269154
-0.00271455
-0.00273709
-0.00275917
-0.00278077
-0.00280188
-0.00282248
-0.00284254
-0.00286203
-0.00288093
-0.00289923
-0.00291693
-0.00293399
-0.00295040
-0.00296615
-0.00298121
-0.00299558
-0.00300923
-0.00302216
-0.00303437
-0.00304588
-0.00305671
-0.00306688
-0.00307638
-0.00308523
-0.00309338
-0.00310086
-0.00310766
-0.00311381
-0.00311932
-0.00312421
-0.00312850
-0.00313219
-0.00313530
-0.00313782
-0.00313976
-0.00314113
-0.00314194
-0.00314220
-0.00314191
-0.00314112
-0.00313984
-0.00313811
-0.00313594
-0.00313330
-0.00313019
-0.00312658
-0.00312246
-0.00311782
-0.00311266
-0.00310698
-0.00310076
-0.00309401
-0.00308674
-0.00307895
-0.00307065
-0.00306189
-0.00305271
-0.00304316
-0.00303326
-0.00302304
-0.00301252
-0.00300171
-0.00299064
-0.00297932
-0.00296776
-0.00295597
-0.00294396
-0.00293175
-0.00291937
-0.00290681
-0.00289407
-0.00288113
-0.00286800
-0.00285471
-0.00284131
-0.00282781
-0.00281426
-0.00280064
-0.00278695
-0.00277320
-0.00275938
-0.00274549
-0.00273153
-0.00271746
-0.00270328
-0.00268896
-0.00267447
-0.00265979
-0.00264492
-0.00262986
-0.00261460
-0.00259915
-0.00258350
-0.00256768
-0.00255169
-0.00253556
-0.00251932
-0.00250299
-0.00248660
-0.00247017
-0.00245370
-0.00243720
-0.00242066
-0.00240408
-0.00238747
-0.00237084
-0.00235418
-0.00233749
-0.00232078
-0.00230401
-0.00228717
-0.00227022
-0.00225316
-0.00223597
-0.00221866
-0.00220123
-0.00218368
-0.00216602
-0.00214825
-0.00213035
-0.00211235
-0.00209425
-0.00207607
-0.00205783
-0.00203955
-0.00202124
-0.00200292
-0.00198458
-0.00196625
-0.00194792
-0.00192962
-0.00191137
-0.00189322
-0.00187520
-0.00185734
-0.00183961
-0.00182200
-0.00180448
-0.00178703
-0.00176966
-0.00175236
-0.00173515
-0.00171802
-0.00170096
-0.00168393
-0.00166692
-0.00164993
-0.00163295
-0.00161597
-0.00159897
-0.00158192
-0.00156482
-0.00154767
-0.00153051
-0.00151333
-0.00149615
-0.00147897
-0.00146180
-0.00144463
-0.00142747
-0.00141031
-0.00139316
-0.00137601
-0.00135889
-0.00134178
-0.00132469
-0.00130763
-0.00129057
-0.00127349
-0.00125639
-0.00123923
-0.00122203
-0.00120480
-0.00118755
-0.00117031
-0.00115307
-0.00113583
-0.00111857
-0.00110131
-0.00108404
-0.00106677
-0.00104949
-0.00103220
-0.00101490
-0.00099758
-0.00098023
-0.00096282
-0.00094536
-0.00092782
-0.00091020
-0.00089247
-0.00087462
-0.00085663
-0.00083849
-0.00082023
-0.00080188
-0.00078346
-0.00076499
-0.00074645
-0.00072783
-0.00070913
-0.00069034
-0.00067148
-0.00065252
-0.00063345
-0.00061428
-0.00059499
-0.00057554
-0.00055590
-0.00053605
-0.00051596
-0.00049561
-0.00047498
-0.00045409
-0.00043295
-0.00041157
-0.00038997
-0.00036817
-0.00034618
-0.00032400
-0.00030163
-0.00027907
-0.00025636
-0.00023352
-0.00021061
-0.00018767
-0.00016473
-0.00014181
-0.00011894
-0.00009613
-0.00007339
-0.00005073
-0.00002814
-0.00000561
0.00001686
0.00003926
0.00006160
0.00008385
0.00010600
0.00012803
0.00014995
0.00017177
0.00019351
0.00021520
0.00023684
0.00025842
0.00027994
0.00030141
0.00032284
0.00034423
0.00036561
0.00038699
0.00040839
0.00042983
0.00045132
0.00047286
0.00049444
0.00051608
0.00053775
0.00055946
0.00058120
0.00060294
0.00062469
0.00064644
0.00066822
0.00069005
0.00071196
0.00073393
0.00075599
0.00077814
0.00080043
0.00082285
0.00084540
0.00086806
0.00089080
0.00091361
0.00093650
0.00095947
0.00098252
0.00100564
0.00102887
0.00105220
0.00107567
0.00109928
0.00112305
0.00114697
0.00117107
0.00119534
0.00121979
0.00124443
0.00126923
0.00129415
0.00131917
0.00134426
0.00136944
0.00139470
0.00142002
0.00144539
0.00147078
0.00149617
0.00152155
0.00154689
0.00157221
0.00159749
0.00162275
0.00164797
0.00167315
0.00169828
0.00172337
0.00174846
0.00177355
0.00179867
0.00182382
0.00184901
0.00187424
0.00189952
0.00192484
0.00195021
0.00197564
0.00200110
0.00202657
0.00205201
0.00207740
0.00210270
0.00212788
0.00215290
0.00217772
0.00220231
0.00222666
0.00225077
0.00227460
0.00229813
0.00232136
0.00234429
0.00236692
0.00238926
0.00241131
0.00243306
0.00245454
0.00247573
0.00249664
0.00251725
0.00253756
0.00255755
0.00257721
0.00259653
0.00261550
0.00263412
0.00265242
0.00267041
0.00268812
0.00270556
0.00272273
0.00273962
0.00275624
0.00277257
0.00278858
0.00280429
0.00281968
0.00283477
0.00284956
0.00286403
0.00287815
0.00289191
0.00290531
0.00291836
0.00293107
0.00294349
0.00295562
0.00296747
0.00297904
0.00299031
0.00300130
0.00301199
0.00302241
0.00303258
0.00304251
0.00305221
0.00306167
0.00307091
0.00307992
0.00308872
0.00309728
0.00310562
0.00311372
0.00312158
0.00312921
0.00313660
0.00314379
0.00315076
0.00315751
0.00316404
0.00317035
0.00317644
0.00318232
0.00318796
0.00319336
0.00319851
0.00320341
0.00320805
0.00321243
0.00321654
0.00322038
0.00322396
0.00322726
0.00323029
0.00323305
0.00323556
0.00323786
0.00323996
0.00324186
0.00324359
0.00324515
0.00324656
0.00324782
0.00324894
0.00324992
0.00325077
0.00325151
0.00325216
0.00325272
0.00325314
0.00325341
0.00325350
0.00325339
0.00325309
0.00325256
0.00325179
0.00325076
0.00324944
0.00324781
0.00324587
0.00324362
0.00324108
0.00323825
0.00323513
0.00323175
0.00322809
0.00322415
0.00321991
0.00321535
0.00321046
0.00320524
0.00319969
0.00319382
0.00318764
0.00318116
0.00317440
0.00316738
0.00316013
0.00315268
0.00314503
0.00313719
0.00312916
0.00312092
0.00311244
0.00310369
0.00309465
0.00308527
0.00307552
0.00306538
0.00305484
0.00304391
0.00303260
0.00302091
0.00300884
0.00299637
0.00298348
0.00297016
0.00295639
0.00294216
0.00292745
0.00291226
0.00289660
0.00288050
0.00286400
0.00284712
0.00282989
0.00281234
0.00279451
0.00277645
0.00275818
0.00273975
0.00272118
0.00270247
0.00268365
0.00266471
0.00264566
0.00262650
0.00260724
0.00258786
0.00256835
0.00254869
0.00252885
0.00250883
0.00248863
0.00246821
0.00244759
0.00242678
0.00240577
0.00238457
0.00236317
0.00234157
0.00231978
0.00229784
0.00227577
0.00225361
0.00223137
0.00220905
0.00218664
0.00216413
0.00214153
0.00211881
0.00209601
0.00207312
0.00205016
0.00202714
0.00200405
0.00198088
0.00195760
0.00193421
0.00191070
0.00188708
0.00186333
0.00183944
0.00181538
0.00179113
0.00176667
0.00174200
0.00171714
0.00169213
0.00166700
0.00164180
0.00161653
0.00159122
0.00156588
0.00154051
0.00151513
0.00148977
0.00146447
0.00143927
0.00141423
0.00138937
0.00136475
0.00134037
0.00131627
0.00129247
0.00126900
0.00124590
0.00122319
0.00120091
0.00117906
0.00115766
0.00113669
0.00111617
0.00109609
0.00107645
0.00105726
0.00103848
0.00102010
0.00100211
0.00098451
0.00096728
0.00095044
0.00093397
0.00091787
0.00090214
0.00088679
0.00087187
0.00085737
0.00084330
0.00082965
0.00081641
0.00080356
0.00079107
0.00077891
0.00076707
0.00075557
0.00074442
0.00073366
0.00072327
0.00071325
0.00070357
0.00069425
0.00068528
0.00067666
0.00066836
0.00066037
0.00065267
0.00064524
0.00063803
0.00063101
0.00062415
0.00061743
0.00061082
0.00060434
0.00059796
0.00059169
0.00058549
0.00057933
0.00057318
0.00056702
0.00056085
0.00055468
0.00054850
0.00054232
0.00053617
0.00053007
0.00052407
0.00051821
0.00051249
0.00050691
0.00050146
0.00049616
0.00049100
0.00048597
0.00048106
0.00047626
0.00047155
0.00046693
0.00046242
0.00045802
0.00045376
0.00044962
0.00044561
0.00044171
0.00043792
0.00043422
0.00043060
0.00042701
0.00042343
0.00041984
0.00041624
0.00041266
0.00040912
0.00040563
0.00040220
0.00039884
0.00039555
0.00039236
0.00038925
0.00038622
0.00038326
0.00038034
0.00037747
0.00037462
0.00037181
0.00036906
0.00036639
0.00036381
0.00036133
0.00035894
0.00035663
0.00035438
0.00035219
0.00035006
0.00034798
0.00034593
0.00034386
0.00034174
0.00033950
0.00033713
0.00033460
0.00033192
0.00032911
0.00032614
0.00032304
0.00031980
0.00031642
0.00031292
0.00030930
0.00030557
0.00030174
0.00029782
0.00029381
0.00028969
0.00028547
0.00028114
0.00027673
0.00027225
0.00026770
0.00026310
0.00025841
0.00025365
0.00024880
0.00024388
0.00023891
0.00023392
0.00022893
0.00022393
0.00021891
0.00021384
0.00020871
0.00020352
0.00019828
0.00019299
0.00018766
0.00018227
0.00017683
0.00017134
0.00016576
0.00016006
0.00015425
0.00014831
0.00014224
0.00013605
0.00012973
0.00012326
0.00011662
0.00010981
0.00010283
0.00009568
0.00008838
0.00008094
0.00007337
0.00006567
0.00005784
0.00004989
0.00004186
0.00003376
0.00002559
0.00001736
0.00000906
0.00000067
-0.00000782
-0.00001643
-0.00002518
-0.00003407
-0.00004314
-0.00005237
-0.00006179
-0.00007140
-0.00008120
-0.00009118
-0.00010130
-0.00011155
-0.00012191
-0.00013236
-0.00014287
-0.00015341
-0.00016397
-0.00017452
-0.00018506
-0.00019557
-0.00020606
-0.00021649
-0.00022685
-0.00023710
-0.00024722
-0.00025720
-0.00026703
-0.00027670
-0.00028618
-0.00029546
-0.00030450
-0.00031330
-0.00032187
-0.00033022
-0.00033839
-0.00034640
-0.00035424
-0.00036193
-0.00036945
-0.00037682
-0.00038405
-0.00039114
-0.00039812
-0.00040495
-0.00041164
-0.00041817
-0.00042454
-0.00043072
-0.00043672
-0.00044254
-0.00044815
-0.00045355
-0.00045870
-0.00046357
-0.00046816
-0.00047243
-0.00047636
-0.00047997
-0.00048324
-0.00048619
-0.00048880
-0.00049109
-0.00049305
-0.00049472
-0.00049610
-0.00049720
-0.00049805
-0.00049869
-0.00049915
-0.00049947
-0.00049965
-0.00049971
-0.00049967
-0.00049953
-0.00049930
-0.00049900
-0.00049861
-0.00049810
-0.00049748
-0.00049676
-0.00049594
-0.00049501
-0.00049393
-0.00049268
-0.00049123
-0.00048953
-0.00048758
-0.00048534
-0.00048281
-0.00047999
-0.00047687
-0.00047345
-0.00046973
-0.00046571
-0.00046140
-0.00045681
-0.00045196
-0.00044690
-0.00044166
-0.00043628
-0.00043079
-0.00042521
-0.00041955
-0.00041384
-0.00040806
-0.00040224
-0.00039636
-0.00039043
-0.00038445
-0.00037842
-0.00037238
-0.00036632
-0.00036025
-0.00035417
-0.00034805
-0.00034189
-0.00033568
-0.00032941
-0.00032308
-0.00031668
-0.00031018
-0.00030357
-0.00029683
-0.00028995
-0.00028295
-0.00027583
-0.00026860
-0.00026128
-0.00025386
-0.00024635
-0.00023875
-0.00023107
-0.00022332
-0.00021551
-0.00020764
-0.00019973
-0.00019182
-0.00018397
-0.00017620
-0.00016856
-0.00016107
-0.00015377
-0.00014668
-0.00013982
-0.00013319
-0.00012678
-0.00012060
-0.00011466
-0.00010897
-0.00010352
-0.00009831
-0.00009331
-0.00008850
-0.00008385
-0.00007931
-0.00007488
-0.00007053
-0.00006627
-0.00006212
-0.00005808
-0.00005417
-0.00005037
-0.00004668
-0.00004309
-0.00003960
-0.00003625
-0.00003304
-0.00002998
-0.00002707
-0.00002430
-0.00002168
-0.00001920
-0.00001689
-0.00001477
-0.00001289
-0.00001125
-0.00000990
-0.00000884
-0.00000808
-0.00000760
-0.00000739
-0.00000748
-0.00000787
-0.00000853
-0.00000943
-0.00001052
-0.00001177
-0.00001314
-0.00001463
-0.00001622
-0.00001791
-0.00001969
-0.00002155
-0.00002347
-0.00002545
-0.00002750
-0.00002962
-0.00003182
-0.00003412
-0.00003648
-0.00003892
-0.00004140
-0.00004394
-0.00004652
-0.00004917
-0.00005188
-0.00005466
-0.00005749
-0.00006039
-0.00006334
-0.00006636
-0.00006945
-0.00007262
-0.00007585
-0.00007914
-0.00008251
-0.00008596
-0.00008951
-0.00009319
-0.00009700
-0.00010097
-0.00010509
-0.00010936
-0.00011378
-0.00011832
-0.00012295
-0.00012767
-0.00013246
-0.00013730
-0.00014218
-0.00014707
-0.00015201
-0.00015700
-0.00016208
-0.00016726
-0.00017254
-0.00017794
-0.00018348
-0.00018919
-0.00019509
-0.00020117
-0.00020746
-0.00021393
-0.00022057
-0.00022735
-0.00023429
-0.00024137
-0.00024858
-0.00025591
-0.00026335
-0.00027088
-0.00027846
-0.00028605
-0.00029360
-0.00030109
-0.00030847
-0.00031571
-0.00032282
-0.00032978
-0.00033658
-0.00034320
-0.00034961
-0.00035576
-0.00036166
-0.00036730
-0.00037267
-0.00037781
-0.00038272
-0.00038742
-0.00039191
-0.00039620
-0.00040029
-0.00040416
-0.00040776
-0.00041106
-0.00041401
-0.00041657
-0.00041869
-0.00042034
-0.00042149
-0.00042211
-0.00042219
-0.00042171
-0.00042066
-0.00041902
-0.00041675
-0.00041385
-0.00041035
-0.00040623
-0.00040150
-0.00039613
-0.00039014
-0.00038353
-0.00037633
-0.00036855
-0.00036017
-0.00035122
-0.00034171
-0.00033166
-0.00032111
-0.00031006
-0.00029856
-0.00028660
-0.00027419
-0.00026137
-0.00024814
-0.00023453
-0.00022058
-0.00020628
-0.00019164
-0.00017667
-0.00016137
-0.00014576
-0.00012986
-0.00011368
-0.00009724
-0.00008056
-0.00006367
-0.00004659
-0.00002934
-0.00001190
0.00000570
0.00002344
0.00004129
0.00005922
0.00007723
0.00009530
0.00011343
0.00013163
0.00014990
0.00016823
0.00018662
0.00020504
0.00022350
0.00024194
0.00026031
0.00027855
0.00029661
0.00031444
0.00033203
0.00034934
0.00036634
0.00038299
0.00039925
0.00041512
0.00043059
0.00044565
0.00046026
0.00047441
0.00048805
0.00050118
0.00051379
0.00052589
0.00053750
0.00054860
0.00055919
0.00056925
0.00057878
0.00058778
0.00059626
0.00060424
0.00061170
0.00061865
0.00062506
0.00063092
0.00063620
0.00064091
0.00064504
0.00064857
0.00065149
0.00065378
0.00065542
0.00065642
0.00065675
0.00065639
0.00065533
0.00065356
0.00065106
0.00064785
0.00064393
0.00063932
0.00063403
0.00062804
0.00062140
0.00061415
0.00060633
0.00059796
0.00058905
0.00057965
0.00056978
0.00055946
0.00054869
0.00053750
0.00052588
0.00051384
0.00050138
0.00048849
0.00047517
0.00046140
0.00044717
0.00043247
0.00041730
0.00040164
0.00038547
0.00036876
0.00035151
0.00033371
0.00031535
0.00029642
0.00027692
0.00025688
0.00023629
0.00021519
0.00019360
0.00017156
0.00014910
0.00012626
0.00010304
0.00007949
0.00005563
0.00003151
0.00000715
-0.00001740
-0.00004214
-0.00006704
-0.00009211
-0.00011734
-0.00014272
-0.00016824
-0.00019393
-0.00021975
-0.00024573
-0.00027186
-0.00029815
-0.00032463
-0.00035133
-0.00037827
-0.00040548
-0.00043295
-0.00046070
-0.00048870
-0.00051693
-0.00054539
-0.00057402
-0.00060279
-0.00063168
-0.00066065
-0.00068972
-0.00071886
-0.00074811
-0.00077747
-0.00080698
-0.00083663
-0.00086643
-0.00089634
-0.00092634
-0.00095641
-0.00098650
-0.00101659
-0.00104663
-0.00107659
-0.00110642
-0.00113613
-0.00116569
-0.00119509
-0.00122432
-0.00125336
-0.00128221
-0.00131088
-0.00133935
-0.00136761
-0.00139565
-0.00142345
-0.00145101
-0.00147830
-0.00150532
-0.00153205
-0.00155848
-0.00158462
-0.00161043
-0.00163590
-0.00166097
-0.00168562
-0.00170983
-0.00173358
-0.00175684
-0.00177958
-0.00180178
-0.00182342
-0.00184448
-0.00186493
-0.00188473
-0.00190385
-0.00192227
-0.00193998
-0.00195697
-0.00197322
-0.00198872
-0.00200345
-0.00201741
-0.00203060
-0.00204306
-0.00205482
-0.00206590
-0.00207632
-0.00208610
-0.00209524
-0.00210377
-0.00211171
-0.00211908
-0.00212588
-0.00213212
-0.00213779
-0.00214288
-0.00214739
-0.00215128
-0.00215452
-0.00215705
-0.00215884
-0.00215984
-0.00216003
-0.00215939
-0.00215793
-0.00215564
-0.00215251
-0.00214856
-0.00214380
-0.00213828
-0.00213202
-0.00212509
-0.00211753
-0.00210937
-0.00210065
-0.00209140
-0.00208161
-0.00207130
-0.00206050
-0.00204921
-0.00203747
-0.00202529
-0.00201271
-0.00199974
-0.00198641
-0.00197275
-0.00195883
-0.00194468
-0.00193032
-0.00191576
-0.00190100
-0.00188605
-0.00187089
-0.00185555
-0.00184005
-0.00182444
-0.00180873
-0.00179293
-0.00177704
-0.00176106
-0.00174498
-0.00172878
-0.00171246
-0.00169600
-0.00167939
-0.00166263
-0.00164572
-0.00162866
-0.00161148
-0.00159419
-0.00157680
-0.00155933
-0.00154184
-0.00152434
-0.00150687
-0.00148944
-0.00147208
-0.00145482
-0.00143772
-0.00142077
-0.00140397
-0.00138731
-0.00137077
-0.00135431
-0.00133792
-0.00132156
-0.00130520
-0.00128880
-0.00127235
-0.00125585
-0.00123930
-0.00122271
-0.00120608
-0.00118942
-0.00117272
-0.00115596
-0.00113912
-0.00112218
-0.00110511
-0.00108792
-0.00107060
-0.00105316
-0.00103562
-0.00101802
-0.00100035
-0.00098264
-0.00096490
-0.00094715
-0.00092943
-0.00091175
-0.00089414
-0.00087661
-0.00085918
-0.00084186
-0.00082463
-0.00080749
-0.00079043
-0.00077342
-0.00075645
-0.00073951
-0.00072257
-0.00070562
-0.00068865
-0.00067166
-0.00065463
-0.00063755
-0.00062042
-0.00060327
-0.00058610
-0.00056893
-0.00055174
-0.00053453
-0.00051731
-0.00050008
-0.00048286
-0.00046566
-0.00044851
-0.00043140
-0.00041434
-0.00039734
-0.00038041
-0.00036355
-0.00034677
-0.00033007
-0.00031347
-0.00029701
-0.00028069
-0.00026452
-0.00024850
-0.00023261
-0.00021683
-0.00020116
-0.00018559
-0.00017010
-0.00015469
-0.00013932
-0.00012398
-0.00010865
-0.00009332
-0.00007797
-0.00006260
-0.00004719
-0.00003172
-0.00001618
-0.00000057
0.00001511
0.00003085
0.00004664
0.00006243
0.00007821
0.00009395
0.00010963
0.00012525
0.00014079
0.00015623
0.00017157
0.00018679
0.00020187
0.00021681
0.00023163
0.00024636
0.00026101
0.00027558
0.00029006
0.00030443
0.00031871
0.00033292
0.00034713
0.00036138
0.00037571
0.00039014
0.00040469
0.00041938
0.00043420
0.00044914
0.00046418
0.00047930
0.00049451
0.00050979
0.00052516
0.00054065
0.00055624
0.00057192
0.00058765
0.00060341
0.00061917
0.00063492
0.00065067
0.00066641
0.00068211
0.00069777
0.00071338
0.00072891
0.00074435
0.00075970
0.00077496
0.00079013
0.00080522
0.00082021
0.00083511
0.00084990
0.00086457
0.00087909
0.00089347
0.00090768
0.00092174
0.00093563
0.00094936
0.00096289
0.00097621
0.00098930
0.00100215
0.00101476
0.00102711
0.00103918
0.00105094
0.00106236
0.00107343
0.00108411
0.00109440
0.00110428
0.00111373
0.00112277
0.00113138
0.00113955
0.00114727
0.00115454
0.00116135
0.00116770
0.00117362
0.00117911
0.00118418
0.00118885
0.00119315
0.00119713
0.00120083
0.00120428
0.00120750
0.00121052
0.00121336
0.00121605
0.00121862
0.00122111
0.00122352
0.00122588
0.00122818
0.00123045
0.00123266
0.00123481
0.00123685
0.00123876
0.00124052
0.00124211
0.00124352
0.00124473
0.00124572
0.00124648
0.00124701
0.00124733
0.00124749
0.00124751
0.00124741
0.00124720
0.00124690
0.00124654
0.00124610
0.00124559
0.00124498
0.00124429
0.00124350
0.00124262
0.00124165
0.00124063
0.00123956
0.00123844
0.00123727
0.00123606
0.00123481
0.00123356
0.00123233
0.00123113
0.00122995
0.00122878
0.00122759
0.00122635
0.00122505
0.00122365
0.00122212
0.00122046
0.00121864
0.00121668
0.00121458
0.00121235
0.00121002
0.00120757
0.00120500
0.00120229
0.00119945
0.00119650
0.00119346
0.00119034
0.00118716
0.00118394
0.00118067
0.00117737
0.00117403
0.00117067
0.00116730
0.00116395
0.00116061
0.00115727
0.00115392
0.00115059
0.00114728
0.00114400
0.00114073
0.00113743
0.00113409
0.00113069
0.00112724
0.00112373
0.00112017
0.00111656
0.00111290
0.00110921
0.00110550
0.00110180
0.00109814
0.00109452
0.00109097
0.00108749
0.00108410
0.00108082
0.00107764
0.00107458
0.00107168
0.00106896
0.00106646
0.00106420
0.00106218
0.00106040
0.00105887
0.00105757
0.00105650
0.00105564
0.00105498
0.00105447
0.00105410
0.00105385
0.00105371
0.00105362
0.00105358
0.00105357
0.00105357
0.00105359
0.00105361
0.00105362
0.00105361
0.00105359
0.00105362
0.00105371
0.00105391
0.00105421
0.00105461
0.00105510
0.00105567
0.00105631
0.00105700
0.00105773
0.00105846
0.00105917
0.00105985
0.00106051
0.00106115
0.00106179
0.00106246
0.00106316
0.00106390
0.00106467
0.00106547
0.00106631
0.00106720
0.00106812
0.00106907
0.00107005
0.00107105
0.00107209
0.00107317
0.00107429
0.00107542
0.00107653
0.00107759
0.00107860
0.00107955
0.00108043
0.00108125
0.00108201
0.00108273
0.00108342
0.00108413
0.00108485
0.00108559
0.00108637
0.00108718
0.00108805
0.00108897
0.00108996
0.00109102
0.00109216
0.00109339
0.00109472
0.00109614
0.00109766
0.00109927
0.00110096
0.00110271
0.00110449
0.00110629
0.00110810
0.00110991
0.00111172
0.00111351
0.00111526
0.00111695
0.00111857
0.00112012
0.00112162
0.00112304
0.00112436
0.00112555
0.00112659
0.00112746
0.00112813
0.00112861
0.00112887
0.00112891
0.00112872
0.00112830
0.00112766
0.00112680
0.00112573
0.00112444
0.00112293
0.00112117
0.00111918
0.00111697
0.00111455
0.00111193
0.00110910
0.00110605
0.00110275
0.00109917
0.00109528
0.00109102
0.00108637
0.00108132
0.00107585
0.00106997
0.00106368
0.00105700
0.00104994
0.00104250
0.00103468
0.00102650
0.00101795
0.00100905
0.00099985
0.00099036
0.00098059
0.00097057
0.00096031
0.00094985
0.00093921
0.00092842
0.00091749
0.00090646
0.00089534
0.00088417
0.00087295
0.00086170
0.00085044
0.00083916
0.00082788
0.00081659
0.00080532
0.00079407
0.00078282
0.00077157
0.00076029
0.00074898
0.00073763
0.00072622
0.00071473
0.00070317
0.00069155
0.00067989
0.00066823
0.00065657
0.00064492
0.00063327
0.00062162
0.00060994
0.00059825
0.00058656
0.00057489
0.00056326
0.00055169
0.00054018
0.00052875
0.00051740
0.00050615
0.00049500
0.00048394
0.00047297
0.00046205
0.00045118
0.00044034
0.00042953
0.00041876
0.00040804
0.00039734
0.00038664
0.00037587
0.00036501
0.00035404
0.00034297
0.00033184
0.00032066
0.00030947
0.00029828
0.00028711
0.00027597
0.00026487
0.00025384
0.00024292
0.00023214
0.00022153
0.00021111
0.00020087
0.00019084
0.00018100
0.00017136
0.00016192
0.00015266
0.00014359
0.00013470
0.00012601
0.00011751
0.00010921
0.00010112
0.00009322
0.00008551
0.00007796
0.00007055
0.00006327
0.00005611
0.00004903
0.00004205
0.00003514
0.00002832
0.00002157
0.00001491
0.00000835
0.00000191
-0.00000440
-0.00001056
-0.00001656
-0.00002239
-0.00002805
-0.00003353
-0.00003882
-0.00004394
-0.00004889
-0.00005370
-0.00005836
-0.00006287
-0.00006723
-0.00007142
-0.00007541
-0.00007919
-0.00008276
-0.00008611
-0.00008926
-0.00009221
-0.00009498
-0.00009759
-0.00010007
-0.00010244
-0.00010470
-0.00010686
-0.00010893
-0.00011091
-0.00011279
-0.00011455
-0.00011619
-0.00011767
-0.00011900
-0.00012016
-0.00012115
-0.00012194
-0.00012255
-0.00012300
-0.00012333
-0.00012355
-0.00012366
-0.00012368
-0.00012359
-0.00012340
-0.00012311
-0.00012275
-0.00012231
-0.00012179
-0.00012116
-0.00012041
-0.00011951
-0.00011846
-0.00011727
-0.00011595
-0.00011452
-0.00011301
-0.00011143
-0.00010981
-0.00010816
-0.00010649
-0.00010480
-0.00010310
-0.00010137
-0.00009961
-0.00009781
-0.00009597
-0.00009408
-0.00009212
-0.00009010
-0.00008803
-0.00008594
-0.00008385
-0.00008176
-0.00007964
-0.00007750
-0.00007532
-0.00007310
-0.00007083
-0.00006851
-0.00006613
-0.00006372
-0.00006128
-0.00005880
-0.00005631
-0.00005380
-0.00005132
-0.00004889
-0.00004652
-0.00004426
-0.00004213
-0.00004011
-0.00003820
-0.00003636
-0.00003461
-0.00003294
-0.00003137
-0.00002988
-0.00002847
-0.00002716
-0.00002596
-0.00002490
-0.00002398
-0.00002319
-0.00002251
-0.00002193
-0.00002143
-0.00002100
-0.00002061
-0.00002024
-0.00001988
-0.00001954
-0.00001924
-0.00001896
-0.00001873
-0.00001855
-0.00001844
-0.00001838
-0.00001840
-0.00001850
-0.00001870
-0.00001903
-0.00001950
-0.00002015
-0.00002098
-0.00002203
-0.00002332
-0.00002489
-0.00002680
-0.00002907
-0.00003171
-0.00003474
-0.00003816
-0.00004199
-0.00004622
-0.00005086
-0.00005589
-0.00006127
-0.00006700
-0.00007308
-0.00007949
-0.00008623
-0.00009327
-0.00010061
-0.00010824
-0.00011615
-0.00012433
-0.00013281
-0.00014160
-0.00015071
-0.00016013
-0.00016987
-0.00017992
-0.00019029
-0.00020099
-0.00021202
-0.00022337
-0.00023504
-0.00024705
-0.00025941
-0.00027212
-0.00028521
-0.00029867
-0.00031253
-0.00032677
-0.00034140
-0.00035642
-0.00037183
-0.00038764
-0.00040384
-0.00042040
-0.00043728
-0.00045445
-0.00047187
-0.00048953
-0.00050741
-0.00052549
-0.00054373
-0.00056211
-0.00058061
-0.00059925
-0.00061801
-0.00063689
-0.00065587
-0.00067495
-0.00069415
-0.00071351
-0.00073306
-0.00075284
-0.00077287
-0.00079317
-0.00081371
-0.00083447
-0.00085540
-0.00087651
-0.00089778
-0.00091921
-0.00094077
-0.00096244
-0.00098418
-0.00100596
-0.00102773
-0.00104947
-0.00107115
-0.00109277
-0.00111430
-0.00113568
-0.00115686
-0.00117780
-0.00119847
-0.00121887
-0.00123898
-0.00125880
-0.00127826
-0.00129736
-0.00131605
-0.00133431
-0.00135211
-0.00136942
-0.00138626
-0.00140264
-0.00141856
-0.00143406
-0.00144914
-0.00146382
-0.00147809
-0.00149196
-0.00150545
-0.00151855
-0.00153129
-0.00154369
-0.00155574
-0.00156744
-0.00157880
-0.00158982
-0.00160051
-0.00161088
-0.00162096
-0.00163077
-0.00164037
-0.00164977
-0.00165896
-0.00166793
-0.00167669
-0.00168522
-0.00169353
-0.00170160
-0.00170944
-0.00171704
-0.00172439
-0.00173146
-0.00173824
-0.00174469
-0.00175082
-0.00175660
-0.00176205
-0.00176717
-0.00177198
-0.00177652
-0.00178081
-0.00178488
-0.00178876
-0.00179248
-0.00179606
-0.00179952
-0.00180288
-0.00180610
-0.00180919
-0.00181211
-0.00181486
-0.00181748
-0.00181997
-0.00182238
-0.00182469
-0.00182689
-0.00182897
-0.00183093
-0.00183278
-0.00183451
-0.00183614
-0.00183764
-0.00183900
-0.00184020
-0.00184125
-0.00184215
-0.00184293
-0.00184360
-0.00184419
-0.00184474
-0.00184526
-0.00184576
-0.00184625
-0.00184673
-0.00184722
-0.00184773
-0.00184827
-0.00184881
-0.00184939
-0.00185000
-0.00185066
-0.00185135
-0.00185206
-0.00185278
-0.00185355
-0.00185436
-0.00185521
-0.00185608
-0.00185694
-0.00185776
-0.00185854
-0.00185924
-0.00185985
-0.00186035
-0.00186070
-0.00186089
-0.00186092
-0.00186077
-0.00186043
-0.00185991
-0.00185920
-0.00185831
-0.00185726
-0.00185605
-0.00185469
-0.00185321
-0.00185162
-0.00184995
-0.00184821
-0.00184641
-0.00184456
-0.00184268
-0.00184076
-0.00183881
-0.00183682
-0.00183478
-0.00183269
-0.00183052
-0.00182826
-0.00182589
-0.00182339
-0.00182076
-0.00181799
-0.00181507
-0.00181200
-0.00180878
-0.00180540
-0.00180189
-0.00179826
-0.00179452
-0.00179066
-0.00178666
-0.00178253
-0.00177827
-0.00177386
-0.00176933
-0.00176468
-0.00175991
-0.00175504
-0.00175007
-0.00174503
-0.00173991
-0.00173472
-0.00172947
-0.00172418
-0.00171885
-0.00171350
-0.00170813
-0.00170274
-0.00169731
-0.00169185
-0.00168637
-0.00168088
-0.00167537
-0.00166981
-0.00166419
-0.00165850
-0.00165275
-0.00164691
-0.00164099
-0.00163503
-0.00162903
-0.00162302
-0.00161700
-0.00161098
-0.00160496
-0.00159896
-0.00159300
-0.00158710
-0.00158129
-0.00157558
-0.00156996
-0.00156443
-0.00155898
-0.00155363
-0.00154838
-0.00154323
-0.00153818
-0.00153324
-0.00152840
-0.00152368
-0.00151906
-0.00151452
-0.00151006
-0.00150566
-0.00150131
-0.00149702
-0.00149274
-0.00148848
-0.00148419
-0.00147988
-0.00147551
-0.00147106
-0.00146651
-0.00146185
-0.00145705
-0.00145211
-0.00144703
-0.00144181
-0.00143643
-0.00143089
-0.00142517
-0.00141930
-0.00141332
-0.00140727
-0.00140115
-0.00139497
-0.00138872
-0.00138238
-0.00137596
-0.00136948
-0.00136294
-0.00135634
-0.00134968
-0.00134295
-0.00133614
-0.00132925
-0.00132230
-0.00131529
-0.00130825
-0.00130117
-0.00129406
-0.00128690
-0.00127969
-0.00127245
-0.00126516
-0.00125782
-0.00125042
-0.00124293
-0.00123536
-0.00122770
-0.00121995
-0.00121213
-0.00120422
-0.00119622
-0.00118813
-0.00117994
-0.00117166
-0.00116332
-0.00115493
-0.00114652
-0.00113810
-0.00112970
-0.00112133
-0.00111302
-0.00110476
-0.00109656
-0.00108841
-0.00108030
-0.00107221
-0.00106413
-0.00105605
-0.00104798
-0.00103993
-0.00103190
-0.00102384
-0.00101573
-0.00100754
-0.00099924
-0.00099082
-0.00098226
-0.00097357
-0.00096475
-0.00095582
-0.00094677
-0.00093760
-0.00092830
-0.00091889
-0.00090938
-0.00089980
-0.00089014
-0.00088039
-0.00087057
-0.00086065
-0.00085065
-0.00084060
-0.00083052
-0.00082047
-0.00081047
-0.00080054
-0.00079070
-0.00078096
-0.00077135
-0.00076187
-0.00075254
-0.00074335
-0.00073431
-0.00072542
-0.00071666
-0.00070802
-0.00069945
-0.00069093
-0.00068242
-0.00067389
-0.00066533
-0.00065672
-0.00064806
-0.00063935
-0.00063059
-0.00062174
-0.00061281
-0.00060378
-0.00059469
-0.00058554
-0.00057638
-0.00056722
-0.00055807
-0.00054895
-0.00053987
-0.00053082
-0.00052182
-0.00051284
-0.00050390
-0.00049499
-0.00048615
-0.00047737
-0.00046867
-0.00046003
-0.00045146
-0.00044298
-0.00043460
-0.00042631
-0.00041811
-0.00040997
-0.00040188
-0.00039380
-0.00038573
-0.00037766
-0.00036957
-0.00036146
-0.00035332
-0.00034515
-0.00033696
-0.00032876
-0.00032055
-0.00031235
-0.00030415
-0.00029597
-0.00028782
-0.00027969
-0.00027160
-0.00026354
-0.00025549
-0.00024744
-0.00023940
-0.00023138
-0.00022336
-0.00021533
-0.00020728
-0.00019919
-0.00019105
-0.00018281
-0.00017446
-0.00016598
-0.00015737
-0.00014861
-0.00013966
-0.00013052
-0.00012118
-0.00011165
-0.00010195
-0.00009208
-0.00008201
-0.00007176
-0.00006130
-0.00005064
-0.00003981
-0.00002881
-0.00001764
-0.00000629
0.00000523
0.00001693
0.00002881
0.00004085
0.00005304
0.00006539
0.00007786
0.00009042
0.00010303
0.00011564
0.00012822
0.00014076
0.00015326
0.00016572
0.00017815
0.00019057
0.00020300
0.00021544
0.00022788
0.00024031
0.00025274
0.00026520
0.00027769
0.00029025
0.00030287
0.00031556
0.00032831
0.00034112
0.00035399
0.00036694
0.00037995
0.00039300
0.00040607
0.00041911
0.00043211
0.00044505
0.00045791
0.00047067
0.00048335
0.00049593
0.00050844
0.00052087
0.00053321
0.00054547
0.00055763
0.00056972
0.00058174
0.00059372
0.00060568
0.00061761
0.00062949
0.00064132
0.00065308
0.00066477
0.00067639
0.00068795
0.00069947
0.00071095
0.00072241
0.00073384
0.00074525
0.00075665
0.00076802
0.00077938
0.00079069
0.00080193
0.00081307
0.00082410
0.00083499
0.00084575
0.00085636
0.00086678
0.00087697
0.00088689
0.00089649
0.00090576
0.00091467
0.00092322
0.00093140
0.00093922
0.00094670
0.00095384
0.00096065
0.00096712
0.00097325
0.00097904
0.00098450
0.00098965
0.00099451
0.00099912
0.00100348
0.00100764
0.00101159
0.00101533
0.00101886
0.00102217
0.00102526
0.00102813
0.00103074
0.00103306
0.00103505
0.00103667
0.00103788
0.00103867
0.00103902
0.00103890
0.00103829
0.00103718
0.00103559
0.00103351
0.00103096
0.00102795
0.00102447
0.00102055
0.00101620
0.00101144
0.00100629
0.00100077
0.00099493
0.00098879
0.00098238
0.00097572
0.00096884
0.00096178
0.00095457
0.00094721
0.00093975
0.00093218
0.00092455
0.00091688
0.00090920
0.00090151
0.00089384
0.00088617
0.00087849
0.00087077
0.00086297
0.00085508
0.00084705
0.00083889
0.00083058
0.00082216
0.00081363
0.00080503
0.00079633
0.00078754
0.00077863
0.00076961
0.00076047
0.00075123
0.00074192
0.00073257
0.00072317
0.00071374
0.00070429
0.00069481
0.00068530
0.00067578
0.00066624
0.00065670
0.00064717
0.00063763
0.00062810
0.00061853
0.00060893
0.00059928
0.00058956
0.00057977
0.00056989
0.00055989
0.00054976
0.00053949
0.00052907
0.00051850
0.00050778
0.00049691
0.00048589
0.00047472
0.00046343
0.00045202
0.00044053
0.00042896
0.00041732
0.00040564
0.00039392
0.00038218
0.00037045
0.00035874
0.00034706
0.00033544
0.00032387
0.00031236
0.00030092
0.00028953
0.00027822
0.00026698
0.00025583
0.00024477
0.00023381
0.00022291
0.00021206
0.00020123
0.00019043
0.00017968
0.00016897
0.00015831
0.00014770
0.00013710
0.00012649
0.00011585
0.00010518
0.00009447
0.00008375
0.00007301
0.00006230
0.00005161
0.00004095
0.00003034
0.00001979
0.00000934
-0.00000098
-0.00001116
-0.00002117
-0.00003101
-0.00004069
-0.00005019
-0.00005951
-0.00006865
-0.00007756
-0.00008623
-0.00009460
-0.00010266
-0.00011040
-0.00011784
-0.00012498
-0.00013185
-0.00013843
-0.00014471
-0.00015069
-0.00015640
-0.00016187
-0.00016713
-0.00017218
-0.00017702
-0.00018165
-0.00018603
-0.00019014
-0.00019396
-0.00019747
-0.00020068
-0.00020355
-0.00020606
-0.00020820
-0.00020997
-0.00021138
-0.00021245
-0.00021318
-0.00021359
-0.00021369
-0.00021348
-0.00021294
-0.00021207
-0.00021085
-0.00020928
-0.00020733
-0.00020501
-0.00020231
-0.00019925
-0.00019583
-0.00019209
-0.00018805
-0.00018371
-0.00017909
-0.00017420
-0.00016905
-0.00016364
-0.00015798
-0.00015207
-0.00014589
-0.00013943
-0.00013268
-0.00012561
-0.00011822
-0.00011055
-0.00010264
-0.00009452
-0.00008625
-0.00007782
-0.00006927
-0.00006058
-0.00005177
-0.00004283
-0.00003377
-0.00002457
-0.00001526
-0.00000585
0.00000363
0.00001315
0.00002269
0.00003225
0.00004183
0.00005142
0.00006101
0.00007058
0.00008012
0.00008960
0.00009904
0.00010839
0.00011766
0.00012683
0.00013592
0.00014490
0.00015379
0.00016256
0.00017122
0.00017976
0.00018815
0.00019636
0.00020438
0.00021220
0.00021982
0.00022728
0.00023455
0.00024164
0.00024855
0.00025527
0.00026180
0.00026813
0.00027427
0.00028021
0.00028596
0.00029152
0.00029689
0.00030206
0.00030700
0.00031169
0.00031613
0.00032034
0.00032433
0.00032809
0.00033163
0.00033493
0.00033798
0.00034076
0.00034327
0.00034553
0.00034755
0.00034939
0.00035108
0.00035266
0.00035416
0.00035561
0.00035704
0.00035850
0.00036003
0.00036165
0.00036338
0.00036525
0.00036725
0.00036940
0.00037175
0.00037433
0.00037718
0.00038033
0.00038379
0.00038755
0.00039160
0.00039591
0.00040047
0.00040526
0.00041026
0.00041547
0.00042085
0.00042635
0.00043196
0.00043767
0.00044347
0.00044938
0.00045539
0.00046151
0.00046773
0.00047407
0.00048055
0.00048717
0.00049398
0.00050099
0.00050819
0.00051556
0.00052310
0.00053080
0.00053866
0.00054671
0.00055494
0.00056339
0.00057205
0.00058091
0.00058997
0.00059921
0.00060864
0.00061825
0.00062805
0.00063799
0.00064805
0.00065819
0.00066838
0.00067862
0.00068890
0.00069922
0.00070957
0.00071996
0.00073037
0.00074080
0.00075125
0.00076169
0.00077213
0.00078257
0.00079301
0.00080347
0.00081399
0.00082461
0.00083534
0.00084619
0.00085715
0.00086823
0.00087943
0.00089073
0.00090214
0.00091367
0.00092532
0.00093708
0.00094894
0.00096088
0.00097288
0.00098490
0.00099692
0.00100892
0.00102088
0.00103282
0.00104476
0.00105670
0.00106867
0.00108064
0.00109263
0.00110466
0.00111674
0.00112888
0.00114106
0.00115331
0.00116563
0.00117803
0.00119050
0.00120305
0.00121568
0.00122841
0.00124122
0.00125413
0.00126714
0.00128025
0.00129347
0.00130679
0.00132022
0.00133374
0.00134734
0.00136096
0.00137457
0.00138813
0.00140158
0.00141488
0.00142801
0.00144093
0.00145362
0.00146607
0.00147827
0.00149018
0.00150179
0.00151309
0.00152407
0.00153469
0.00154495
0.00155483
0.00156432
0.00157344
0.00158219
0.00159057
0.00159860
0.00160630
0.00161367
0.00162071
0.00162740
0.00163374
0.00163975
0.00164543
0.00165077
0.00165577
0.00166045
0.00166481
0.00166887
0.00167264
0.00167612
0.00167932
0.00168223
0.00168485
0.00168716
0.00168916
0.00169082
0.00169213
0.00169310
0.00169374
0.00169407
0.00169411
0.00169387
0.00169339
0.00169271
0.00169185
0.00169085
0.00168972
0.00168847
0.00168712
0.00168571
0.00168428
0.00168285
0.00168146
0.00168013
0.00167888
0.00167774
0.00167671
0.00167581
0.00167506
0.00167448
0.00167407
0.00167384
0.00167378
0.00167389
0.00167413
0.00167451
0.00167501
0.00167562
0.00167632
0.00167712
0.00167803
0.00167905
0.00168022
0.00168153
0.00168299
0.00168459
0.00168633
0.00168822
0.00169028
0.00169251
0.00169491
0.00169749
0.00170024
0.00170320
0.00170639
0.00170982
0.00171350
0.00171743
0.00172163
0.00172611
0.00173088
0.00173596
0.00174135
0.00174704
0.00175300
0.00175923
0.00176571
0.00177241
0.00177932
0.00178643
0.00179371
0.00180114
0.00180870
0.00181638
0.00182416
0.00183201
0.00183992
0.00184783
0.00185572
0.00186359
0.00187142
0.00187923
0.00188703
0.00189483
0.00190266
0.00191050
0.00191834
0.00192616
0.00193396
0.00194174
0.00194952
0.00195729
0.00196504
0.00197273
0.00198036
0.00198790
0.00199535
0.00200269
0.00200990
0.00201697
0.00202386
0.00203055
0.00203701
0.00204319
0.00204906
0.00205456
0.00205968
0.00206438
0.00206864
0.00207245
0.00207581
0.00207871
0.00208115
0.00208316
0.00208476
0.00208599
0.00208687
0.00208742
0.00208766
0.00208761
0.00208729
0.00208672
0.00208592
0.00208492
0.00208375
0.00208242
0.00208091
0.00207921
0.00207730
0.00207517
0.00207283
0.00207028
0.00206752
0.00206452
0.00206128
0.00205777
0.00205397
0.00204986
0.00204545
0.00204072
0.00203566
0.00203026
0.00202453
0.00201847
0.00201207
0.00200536
0.00199835
0.00199104
0.00198345
0.00197557
0.00196740
0.00195895
0.00195022
0.00194126
0.00193206
0.00192265
0.00191305
0.00190329
0.00189342
0.00188347
0.00187346
0.00186342
0.00185335
0.00184327
0.00183315
0.00182297
0.00181270
0.00180231
0.00179176
0.00178107
0.00177020
0.00175916
0.00174792
0.00173646
0.00172479
0.00171286
0.00170069
0.00168825
0.00167556
0.00166262
0.00164943
0.00163596
0.00162221
0.00160817
0.00159387
0.00157933
0.00156456
0.00154955
0.00153429
0.00151876
0.00150295
0.00148686
0.00147047
0.00145382
0.00143691
0.00141974
0.00140232
0.00138462
0.00136665
0.00134841
0.00132991
0.00131114
0.00129212
0.00127283
0.00125324
0.00123334
0.00121309
0.00119249
0.00117152
0.00115020
0.00112854
0.00110656
0.00108428
0.00106172
0.00103889
0.00101580
0.00099246
0.00096885
0.00094502
0.00092100
0.00089681
0.00087245
0.00084792
0.00082322
0.00079836
0.00077335
0.00074818
0.00072286
0.00069739
0.00067179
0.00064605
0.00062019
0.00059418
0.00056801
0.00054163
0.00051503
0.00048816
0.00046104
0.00043366
0.00040603
0.00037816
0.00035006
0.00032174
0.00029320
0.00026446
0.00023550
0.00020634
0.00017701
0.00014754
0.00011797
0.00008833
0.00005866
0.00002898
-0.00000068
-0.00003028
-0.00005979
-0.00008920
-0.00011848
-0.00014764
-0.00017666
-0.00020553
-0.00023425
-0.00026280
-0.00029118
-0.00031939
-0.00034742
-0.00037525
-0.00040291
-0.00043041
-0.00045773
-0.00048486
-0.00051180
-0.00053851
-0.00056500
-0.00059123
-0.00061719
-0.00064287
-0.00066823
-0.00069325
-0.00071791
-0.00074217
-0.00076598
-0.00078930
-0.00081213
-0.00083448
-0.00085636
-0.00087777
-0.00089869
-0.00091908
-0.00093892
-0.00095818
-0.00097681
-0.00099478
-0.00101207
-0.00102867
-0.00104460
-0.00105984
-0.00107439
-0.00108822
-0.00110134
-0.00111372
-0.00112539
-0.00113635
-0.00114661
-0.00115618
-0.00116506
-0.00117325
-0.00118071
-0.00118744
-0.00119341
-0.00119857
-0.00120291
-0.00120639
-0.00120899
-0.00121069
-0.00121149
-0.00121139
-0.00121037
-0.00120845
-0.00120564
-0.00120193
-0.00119734
-0.00119184
-0.00118542
-0.00117807
-0.00116979
-0.00116060
-0.00115048
-0.00113946
-0.00112755
-0.00111474
-0.00110106
-0.00108652
-0.00107116
-0.00105501
-0.00103807
-0.00102036
-0.00100186
-0.00098261
-0.00096264
-0.00094198
-0.00092066
-0.00089871
-0.00087613
-0.00085295
-0.00082915
-0.00080474
-0.00077972
-0.00075410
-0.00072787
-0.00070106
-0.00067364
-0.00064562
-0.00061696
-0.00058768
-0.00055779
-0.00052729
-0.00049620
-0.00046450
-0.00043220
-0.00039931
-0.00036584
-0.00033181
-0.00029724
-0.00026216
-0.00022660
-0.00019061
-0.00015422
-0.00011744
-0.00008027
-0.00004273
-0.00000481
0.00003345
0.00007202
0.00011089
0.00015001
0.00018939
0.00022903
0.00026895
0.00030913
0.00034959
0.00039031
0.00043126
0.00047239
0.00051366
0.00055502
0.00059643
0.00063787
0.00067932
0.00072080
0.00076227
0.00080374
0.00084519
0.00088660
0.00092798
0.00096931
0.00101062
0.00105190
0.00109318
0.00113444
0.00117569
0.00121690
0.00125802
0.00129900
0.00133981
0.00138039
0.00142069
0.00146067
0.00150027
0.00153944
0.00157814
0.00161633
0.00165400
0.00169114
0.00172775
0.00176384
0.00179943
0.00183452
0.00186911
0.00190319
0.00193676
0.00196981
0.00200237
0.00203444
0.00206601
0.00209708
0.00212763
0.00215767
0.00218719
0.00221618
0.00224463
0.00227251
0.00229980
0.00232645
0.00235240
0.00237759
0.00240196
0.00242545
0.00244804
0.00246969
0.00249041
0.00251016
0.00252891
0.00254664
0.00256333
0.00257901
0.00259372
0.00260749
0.00262031
0.00263221
0.00264320
0.00265329
0.00266249
0.00267081
0.00267829
0.00268493
0.00269076
0.00269577
0.00269998
0.00270341
0.00270606
0.00270793
0.00270905
0.00270941
0.00270903
0.00270789
0.00270598
0.00270330
0.00269982
0.00269554
0.00269043
0.00268445
0.00267758
0.00266979
0.00266106
0.00265139
0.00264078
0.00262923
0.00261677
0.00260342
0.00258918
0.00257408
0.00255812
0.00254129
0.00252360
0.00250509
0.00248578
0.00246571
0.00244490
0.00242337
0.00240114
0.00237822
0.00235463
0.00233041
0.00230557
0.00228014
0.00225412
0.00222753
0.00220039
0.00217271
0.00214451
0.00211580
0.00208660
0.00205691
0.00202677
0.00199619
0.00196520
0.00193381
0.00190202
0.00186986
0.00183736
0.00180456
0.00177152
0.00173827
0.00170487
0.00167133
0.00163767
0.00160390
0.00157003
0.00153608
0.00150209
0.00146809
0.00143412
0.00140018
0.00136628
0.00133241
0.00129862
0.00126490
0.00123129
0.00119778
0.00116437
0.00113106
0.00109784
0.00106472
0.00103168
0.00099875
0.00096590
0.00093315
0.00090048
0.00086788
0.00083532
0.00080279
0.00077030
0.00073784
0.00070540
0.00067294
0.00064045
0.00060793
0.00057537
0.00054278
0.00051015
0.00047752
0.00044491
0.00041235
0.00037988
0.00034753
0.00031531
0.00028325
0.00025135
0.00021961
0.00018805
0.00015667
0.00012547
0.00009446
0.00006364
0.00003301
0.00000255
-0.00002776
-0.00005794
-0.00008801
-0.00011797
-0.00014784
-0.00017765
-0.00020740
-0.00023711
-0.00026677
-0.00029639
-0.00032600
-0.00035560
-0.00038522
-0.00041484
-0.00044447
-0.00047409
-0.00050370
-0.00053325
-0.00056273
-0.00059211
-0.00062138
-0.00065057
-0.00067969
-0.00070875
-0.00073773
-0.00076663
-0.00079543
-0.00082412
-0.00085269
-0.00088113
-0.00090948
-0.00093774
-0.00096594
-0.00099407
-0.00102217
-0.00105023
-0.00107827
-0.00110629
-0.00113430
-0.00116230
-0.00119031
-0.00121833
-0.00124637
-0.00127441
-0.00130247
-0.00133056
-0.00135867
-0.00138683
-0.00141502
-0.00144325
-0.00147152
-0.00149983
-0.00152821
-0.00155667
-0.00158525
-0.00161396
-0.00164281
-0.00167180
-0.00170095
-0.00173025
-0.00175972
-0.00178934
-0.00181910
-0.00184902
-0.00187911
-0.00190935
-0.00193976
-0.00197033
-0.00200106
-0.00203196
-0.00206305
-0.00209434
-0.00212584
-0.00215756
-0.00218951
-0.00222167
-0.00225406
-0.00228664
-0.00231938
-0.00235227
-0.00238527
-0.00241835
-0.00245149
-0.00248465
-0.00251779
-0.00255091
-0.00258398
-0.00261699
-0.00264990
-0.00268270
-0.00271538
-0.00274790
-0.00278025
-0.00281243
-0.00284446
-0.00287633
-0.00290806
-0.00293965
-0.00297112
-0.00300242
-0.00303355
-0.00306448
-0.00309519
-0.00312567
-0.00315593
-0.00318596
-0.00321577
-0.00324535
-0.00327472
-0.00330386
-0.00333279
-0.00336148
-0.00338992
-0.00341809
-0.00344597
-0.00347354
-0.00350077
-0.00352762
-0.00355408
-0.00358012
-0.00360577
-0.00363100
-0.00365578
-0.00368008
-0.00370387
-0.00372713
-0.00374982
-0.00377192
-0.00379340
-0.00381424
-0.00383442
-0.00385391
-0.00387268
-0.00389072
-0.00390803
-0.00392459
-0.00394037
-0.00395536
-0.00396951
-0.00398283
-0.00399528
-0.00400685
-0.00401757
-0.00402745
-0.00403650
-0.00404474
-0.00405217
-0.00405881
-0.00406464
-0.00406966
-0.00407387
-0.00407729
-0.00407996
-0.00408194
-0.00408329
-0.00408403
-0.00408420
-0.00408382
-0.00408293
-0.00408154
-0.00407969
-0.00407737
-0.00407463
-0.00407148
-0.00406793
-0.00406403
-0.00405980
-0.00405529
-0.00405053
-0.00404556
-0.00404043
-0.00403516
-0.00402979
-0.00402431
-0.00401873
-0.00401306
-0.00400730
-0.00400148
-0.00399561
-0.00398969
-0.00398372
-0.00397768
-0.00397157
-0.00396536
-0.00395906
-0.00395269
-0.00394625
-0.00393975
-0.00393319
-0.00392653
-0.00391978
-0.00391292
-0.00390595
-0.00389888
-0.00389172
-0.00388446
-0.00387709
-0.00386959
-0.00386196
-0.00385419
-0.00384632
-0.00383838
-0.00383043
-0.00382247
-0.00381453
-0.00380661
-0.00379872
-0.00379088
-0.00378310
-0.00377540
-0.00376783
-0.00376040
-0.00375310
-0.00374590
-0.00373878
-0.00373172
-0.00372469
-0.00371770
-0.00371075
-0.00370383
-0.00369692
-0.00369001
-0.00368309
-0.00367612
-0.00366907
-0.00366194
-0.00365472
-0.00364740
-0.00363994
-0.00363233
-0.00362456
-0.00361662
-0.00360850
-0.00360023
-0.00359180
-0.00358325
-0.00357459
-0.00356580
-0.00355688
-0.00354785
-0.00353871
-0.00352949
-0.00352017
-0.00351077
-0.00350126
-0.00349162
-0.00348183
-0.00347188
-0.00346177
-0.00345149
-0.00344106
-0.00343050
-0.00341980
-0.00340897
-0.00339799
-0.00338684
-0.00337549
-0.00336392
-0.00335210
-0.00334006
-0.00332778
-0.00331530
-0.00330262
-0.00328975
-0.00327669
-0.00326343
-0.00324999
-0.00323636
-0.00322253
-0.00320850
-0.00319431
-0.00317996
-0.00316548
-0.00315088
-0.00313618
-0.00312140
-0.00310654
-0.00309158
-0.00307651
-0.00306128
-0.00304588
-0.00303027
-0.00301441
-0.00299827
-0.00298182
-0.00296505
-0.00294798
-0.00293064
-0.00291302
-0.00289513
-0.00287694
-0.00285842
-0.00283957
-0.00282038
-0.00280086
-0.00278098
-0.00276074
-0.00274013
-0.00271913
-0.00269772
-0.00267587
-0.00265359
-0.00263087
-0.00260772
-0.00258414
-0.00256011
-0.00253562
-0.00251066
-0.00248522
-0.00245932
-0.00243297
-0.00240619
-0.00237899
-0.00235137
-0.00232331
-0.00229483
-0.00226591
-0.00223656
-0.00220683
-0.00217672
-0.00214626
-0.00211544
-0.00208426
-0.00205272
-0.00202082
-0.00198852
-0.00195584
-0.00192277
-0.00188932
-0.00185550
-0.00182132
-0.00178680
-0.00175191
-0.00171665
-0.00168103
-0.00164509
-0.00160886
-0.00157238
-0.00153567
-0.00149878
-0.00146172
-0.00142454
-0.00138725
-0.00134985
-0.00131235
-0.00127476
-0.00123708
-0.00119929
-0.00116138
-0.00112334
-0.00108516
-0.00104686
-0.00100846
-0.00096997
-0.00093139
-0.00089274
-0.00085402
-0.00081522
-0.00077633
-0.00073733
-0.00069822
-0.00065903
-0.00061977
-0.00058047
-0.00054113
-0.00050174
-0.00046231
-0.00042283
-0.00038332
-0.00034384
-0.00030444
-0.00026519
-0.00022612
-0.00018724
-0.00014856
-0.00011009
-0.00007184
-0.00003382
0.00000395
0.00004145
0.00007865
0.00011554
0.00015213
0.00018842
0.00022442
0.00026012
0.00029550
0.00033054
0.00036522
0.00039953
0.00043345
0.00046699
0.00050013
0.00053288
0.00056522
0.00059713
0.00062857
0.00065955
0.00069005
0.00072007
0.00074960
0.00077864
0.00080715
0.00083511
0.00086248
0.00088923
0.00091533
0.00094077
0.00096553
0.00098959
0.00101290
0.00103546
0.00105723
0.00107819
0.00109832
0.00111761
0.00113603
0.00115355
0.00117015
0.00118582
0.00120054
0.00121432
0.00122712
0.00123894
0.00124979
0.00125967
0.00126860
0.00127658
0.00128359
0.00128964
0.00129473
0.00129886
0.00130203
0.00130422
0.00130542
0.00130560
0.00130475
0.00130289
0.00130003
0.00129621
0.00129144
0.00128576
0.00127918
0.00127174
0.00126342
0.00125423
0.00124422
0.00123339
0.00122179
0.00120946
0.00119644
0.00118275
0.00116842
0.00115343
0.00113780
0.00112155
0.00110473
0.00108737
0.00106952
0.00105121
0.00103245
0.00101327
0.00099369
0.00097374
0.00095346
0.00093289
0.00091206
0.00089098
0.00086967
0.00084813
0.00082638
0.00080442
0.00078227
0.00075993
0.00073739
0.00071461
0.00069157
0.00066828
0.00064473
0.00062095
0.00059696
0.00057276
0.00054836
0.00052378
0.00049903
0.00047411
0.00044904
0.00042384
0.00039856
0.00037328
0.00034807
0.00032302
0.00029823
0.00027375
0.00024963
0.00022589
0.00020252
0.00017953
0.00015691
0.00013466
0.00011277
0.00009125
0.00007010
0.00004930
0.00002887
0.00000880
-0.00001090
-0.00003020
-0.00004914
-0.00006774
-0.00008601
-0.00010398
-0.00012166
-0.00013906
-0.00015617
-0.00017298
-0.00018949
-0.00020568
-0.00022154
-0.00023706
-0.00025225
-0.00026710
-0.00028161
-0.00029577
-0.00030954
-0.00032285
-0.00033567
-0.00034794
-0.00035963
-0.00037074
-0.00038124
-0.00039114
-0.00040044
-0.00040914
-0.00041724
-0.00042474
-0.00043168
-0.00043808
-0.00044399
-0.00044942
-0.00045439
-0.00045890
-0.00046293
-0.00046648
-0.00046951
-0.00047196
-0.00047383
-0.00047510
-0.00047576
-0.00047581
-0.00047524
-0.00047409
-0.00047240
-0.00047020
-0.00046752
-0.00046439
-0.00046082
-0.00045682
-0.00045241
-0.00044757
-0.00044229
-0.00043657
-0.00043039
-0.00042371
-0.00041653
-0.00040884
-0.00040061
-0.00039185
-0.00038254
-0.00037271
-0.00036239
-0.00035163
-0.00034045
-0.00032885
-0.00031687
-0.00030450
-0.00029176
-0.00027866
-0.00026518
-0.00025137
-0.00023723
-0.00022277
-0.00020801
-0.00019296
-0.00017763
-0.00016205
-0.00014625
-0.00013026
-0.00011412
-0.00009788
-0.00008154
-0.00006511
-0.00004859
-0.00003199
-0.00001535
0.00000133
0.00001801
0.00003465
0.00005122
0.00006771
0.00008411
0.00010040
0.00011655
0.00013253
0.00014830
0.00016385
0.00017914
0.00019416
0.00020894
0.00022348
0.00023776
0.00025180
0.00026558
0.00027912
0.00029244
0.00030554
0.00031846
0.00033121
0.00034382
0.00035631
0.00036871
0.00038108
0.00039348
0.00040594
0.00041851
0.00043120
0.00044404
0.00045706
0.00047026
0.00048364
0.00049723
0.00051102
0.00052501
0.00053920
0.00055355
0.00056806
0.00058268
0.00059741
0.00061222
0.00062712
0.00064209
0.00065712
0.00067220
0.00068729
0.00070238
0.00071744
0.00073246
0.00074741
0.00076230
0.00077712
0.00079188
0.00080656
0.00082115
0.00083563
0.00084997
0.00086415
0.00087819
0.00089210
0.00090593
0.00091968
0.00093339
0.00094707
0.00096073
0.00097438
0.00098802
0.00100167
0.00101534
0.00102904
0.00104277
0.00105650
0.00107024
0.00108394
0.00109760
0.00111118
0.00112466
0.00113798
0.00115113
0.00116406
0.00117674
0.00118916
0.00120130
0.00121314
0.00122468
0.00123589
0.00124676
0.00125729
0.00126748
0.00127730
0.00128675
0.00129583
0.00130453
0.00131285
0.00132078
0.00132830
0.00133541
0.00134211
0.00134840
0.00135427
0.00135969
0.00136464
0.00136909
0.00137300
0.00137635
0.00137913
0.00138132
0.00138296
0.00138406
0.00138466
0.00138478
0.00138444
0.00138366
0.00138243
0.00138079
0.00137873
0.00137628
0.00137343
0.00137019
0.00136655
0.00136252
0.00135808
0.00135325
0.00134799
0.00134234
0.00133629
0.00132991
0.00132320
0.00131620
0.00130889
0.00130127
0.00129334
0.00128512
0.00127661
0.00126780
0.00125869
0.00124929
0.00123957
0.00122949
0.00121902
0.00120811
0.00119674
0.00118490
0.00117258
0.00115979
0.00114655
0.00113286
0.00111871
0.00110411
0.00108907
0.00107361
0.00105774
0.00104147
0.00102481
0.00100775
0.00099027
0.00097238
0.00095408
0.00093543
0.00091645
0.00089717
0.00087759
0.00085770
0.00083748
0.00081692
0.00079602
0.00077478
0.00075320
0.00073132
0.00070914
0.00068665
0.00066382
0.00064064
0.00061708
0.00059315
0.00056886
0.00054421
0.00051922
0.00049389
0.00046820
0.00044212
0.00041563
0.00038873
0.00036144
0.00033382
0.00030587
0.00027763
0.00024909
0.00022024
0.00019107
0.00016156
0.00013173
0.00010160
0.00007120
0.00004054
0.00000967
-0.00002138
-0.00005258
-0.00008388
-0.00011526
-0.00014668
-0.00017811
-0.00020953
-0.00024091
-0.00027223
-0.00030348
-0.00033465
-0.00036575
-0.00039678
-0.00042774
-0.00045861
-0.00048938
-0.00052002
-0.00055053
-0.00058089
-0.00061110
-0.00064113
-0.00067097
-0.00070060
-0.00072999
-0.00075912
-0.00078795
-0.00081648
-0.00084471
-0.00087266
-0.00090034
-0.00092773
-0.00095484
-0.00098165
-0.00100815
-0.00103432
-0.00106018
-0.00108572
-0.00111095
-0.00113585
-0.00116040
-0.00118457
-0.00120833
-0.00123167
-0.00125458
-0.00127706
-0.00129908
-0.00132066
-0.00134177
-0.00136238
-0.00138247
-0.00140201
-0.00142097
-0.00143934
-0.00145711
-0.00147429
-0.00149085
-0.00150678
-0.00152205
-0.00153664
-0.00155055
-0.00156379
-0.00157635
-0.00158823
-0.00159940
-0.00160985
-0.00161957
-0.00162855
-0.00163680
-0.00164430
-0.00165107
-0.00165708
-0.00166236
-0.00166690
-0.00167073
-0.00167384
-0.00167620
-0.00167782
-0.00167869
-0.00167883
-0.00167826
-0.00167701
-0.00167510
-0.00167256
-0.00166939
-0.00166559
-0.00166115
-0.00165608
-0.00165038
-0.00164404
-0.00163703
-0.00162935
-0.00162097
-0.00161186
-0.00160199
-0.00159136
-0.00157994
-0.00156774
-0.00155474
-0.00154097
-0.00152643
-0.00151115
-0.00149515
-0.00147848
-0.00146113
-0.00144312
-0.00142447
-0.00140516
-0.00138521
-0.00136462
-0.00134344
-0.00132169
-0.00129943
-0.00127670
-0.00125356
-0.00123008
-0.00120630
-0.00118228
-0.00115802
-0.00113356
-0.00110889
-0.00108405
-0.00105903
-0.00103386
-0.00100856
-0.00098315
-0.00095768
-0.00093218
-0.00090665
-0.00088109
-0.00085548
-0.00082984
-0.00080419
-0.00077856
-0.00075297
-0.00072743
-0.00070195
-0.00067655
-0.00065123
-0.00062601
-0.00060091
-0.00057597
-0.00055121
-0.00052670
-0.00050245
-0.00047851
-0.00045488
-0.00043157
-0.00040858
-0.00038589
-0.00036349
-0.00034138
-0.00031957
-0.00029806
-0.00027688
-0.00025606
-0.00023558
-0.00021545
-0.00019566
-0.00017622
-0.00015711
-0.00013832
-0.00011985
-0.00010167
-0.00008377
-0.00006614
-0.00004877
-0.00003163
-0.00001470
0.00000206
0.00001864
0.00003505
0.00005130
0.00006740
0.00008335
0.00009918
0.00011487
0.00013042
0.00014580
0.00016099
0.00017597
0.00019073
0.00020527
0.00021956
0.00023358
0.00024734
0.00026082
0.00027402
0.00028692
0.00029955
0.00031191
0.00032401
0.00033588
0.00034754
0.00035898
0.00037024
0.00038130
0.00039218
0.00040289
0.00041342
0.00042378
0.00043398
0.00044402
0.00045390
0.00046364
0.00047325
0.00048272
0.00049207
0.00050129
0.00051041
0.00051940
0.00052827
0.00053701
0.00054563
0.00055413
0.00056252
0.00057076
0.00057883
0.00058670
0.00059434
0.00060170
0.00060877
0.00061554
0.00062203
0.00062825
0.00063423
0.00063997
0.00064551
0.00065087
0.00065609
0.00066124
0.00066635
0.00067145
0.00067653
0.00068160
0.00068665
0.00069168
0.00069670
0.00070171
0.00070674
0.00071177
0.00071680
0.00072184
0.00072686
0.00073185
0.00073681
0.00074175
0.00074668
0.00075161
0.00075655
0.00076150
0.00076645
0.00077139
0.00077629
0.00078114
0.00078596
0.00079076
0.00079558
0.00080044
0.00080533
0.00081025
0.00081525
0.00082035
0.00082560
0.00083102
0.00083663
0.00084245
0.00084853
0.00085489
0.00086154
0.00086848
0.00087569
0.00088317
0.00089093
0.00089897
0.00090731
0.00091594
0.00092488
0.00093415
0.00094376
0.00095373
0.00096406
0.00097474
0.00098575
0.00099709
0.00100870
0.00102055
0.00103260
0.00104480
0.00105715
0.00106965
0.00108228
0.00109506
0.00110798
0.00112102
0.00113415
0.00114736
0.00116064
0.00117400
0.00118744
0.00120098
0.00121464
0.00122842
0.00124235
0.00125642
0.00127061
0.00128493
0.00129939
0.00131398
0.00132869
0.00134349
0.00135831
0.00137314
0.00138795
0.00140269
0.00141736
0.00143194
0.00144643
0.00146082
0.00147508
0.00148919
0.00150313
0.00151687
0.00153042
0.00154377
0.00155691
0.00156984
0.00158257
0.00159508
0.00160738
0.00161948
0.00163138
0.00164309
0.00165462
0.00166598
0.00167719
0.00168828
0.00169927
0.00171016
0.00172098
0.00173171
0.00174237
0.00175295
0.00176342
0.00177372
0.00178382
0.00179366
0.00180321
0.00181245
0.00182134
0.00182987
0.00183801
0.00184572
0.00185302
0.00185990
0.00186637
0.00187245
0.00187814
0.00188347
0.00188843
0.00189305
0.00189735
0.00190136
0.00190509
0.00190854
0.00191172
0.00191467
0.00191740
0.00191994
0.00192230
0.00192449
0.00192653
0.00192842
0.00193017
0.00193178
0.00193326
0.00193458
0.00193573
0.00193667
0.00193738
0.00193784
0.00193802
0.00193791
0.00193752
0.00193685
0.00193588
0.00193465
0.00193314
0.00193137
0.00192935
0.00192707
0.00192456
0.00192181
0.00191883
0.00191562
0.00191217
0.00190845
0.00190448
0.00190025
0.00189575
0.00189100
0.00188601
0.00188079
0.00187537
0.00186973
0.00186390
0.00185786
0.00185163
0.00184518
0.00183850
0.00183157
0.00182437
0.00181687
0.00180906
0.00180095
0.00179255
0.00178385
0.00177487
0.00176561
0.00175607
0.00174625
0.00173616
0.00172578
0.00171514
0.00170421
0.00169301
0.00168153
0.00166979
0.00165780
0.00164556
0.00163305
0.00162028
0.00160726
0.00159400
0.00158050
0.00156676
0.00155276
0.00153849
0.00152395
0.00150912
0.00149403
0.00147865
0.00146299
0.00144700
0.00143066
0.00141398
0.00139695
0.00137957
0.00136184
0.00134376
0.00132535
0.00130660
0.00128752
0.00126813
0.00124845
0.00122849
0.00120827
0.00118781
0.00116713
0.00114622
0.00112511
0.00110382
0.00108240
0.00106086
0.00103921
0.00101748
0.00099571
0.00097393
0.00095218
0.00093048
0.00090884
0.00088725
0.00086572
0.00084426
0.00082287
0.00080154
0.00078028
0.00075904
0.00073780
0.00071652
0.00069519
0.00067379
0.00065233
0.00063080
0.00060921
0.00058756
0.00056586
0.00054412
0.00052237
0.00050065
0.00047899
0.00045741
0.00043592
0.00041452
0.00039321
0.00037201
0.00035093
0.00032999
0.00030920
0.00028859
0.00026820
0.00024807
0.00022821
0.00020866
0.00018939
0.00017044
0.00015182
0.00013356
0.00011565
0.00009809
0.00008083
0.00006386
0.00004715
0.00003067
0.00001437
-0.00000176
-0.00001775
-0.00003360
-0.00004932
-0.00006491
-0.00008039
-0.00009580
-0.00011115
-0.00012643
-0.00014164
-0.00015672
-0.00017164
-0.00018635
-0.00020081
-0.00021498
-0.00022885
-0.00024242
-0.00025569
-0.00026865
-0.00028131
-0.00029364
-0.00030566
-0.00031738
-0.00032881
-0.00033995
-0.00035080
-0.00036135
-0.00037158
-0.00038150
-0.00039110
-0.00040041
-0.00040944
-0.00041819
-0.00042671
-0.00043500
-0.00044311
-0.00045105
-0.00045883
-0.00046645
-0.00047393
-0.00048126
-0.00048845
-0.00049551
-0.00050244
-0.00050925
-0.00051591
-0.00052243
-0.00052875
-0.00053487
-0.00054079
-0.00054651
-0.00055205
-0.00055737
-0.00056247
-0.00056735
-0.00057201
-0.00057644
-0.00058067
-0.00058468
-0.00058845
-0.00059199
-0.00059530
-0.00059838
-0.00060123
-0.00060386
-0.00060626
-0.00060846
-0.00061051
-0.00061245
-0.00061430
-0.00061610
-0.00061784
-0.00061948
-0.00062101
-0.00062240
-0.00062363
-0.00062471
-0.00062565
-0.00062647
-0.00062720
-0.00062784
-0.00062838
-0.00062881
-0.00062910
-0.00062924
-0.00062924
-0.00062911
-0.00062885
-0.00062845
-0.00062791
-0.00062720
-0.00062630
-0.00062522
-0.00062398
-0.00062260
-0.00062109
-0.00061949
-0.00061784
-0.00061615
-0.00061448
-0.00061285
-0.00061129
-0.00060984
-0.00060852
-0.00060732
-0.00060627
-0.00060538
-0.00060467
-0.00060415
-0.00060380
-0.00060364
-0.00060367
-0.00060389
-0.00060429
-0.00060487
-0.00060557
-0.00060640
-0.00060732
-0.00060834
-0.00060945
-0.00061064
-0.00061190
-0.00061321
-0.00061458
-0.00061600
-0.00061748
-0.00061903
-0.00062064
-0.00062233
-0.00062406
-0.00062583
-0.00062761
-0.00062940
-0.00063121
-0.00063303
-0.00063488
-0.00063676
-0.00063865
-0.00064058
-0.00064255
-0.00064459
-0.00064667
-0.00064881
-0.00065096
-0.00065311
-0.00065524
-0.00065734
-0.00065938
-0.00066133
-0.00066318
-0.00066493
-0.00066656
-0.00066805
-0.00066940
-0.00067061
-0.00067167
-0.00067261
-0.00067342
-0.00067410
-0.00067464
-0.00067503
-0.00067527
-0.00067541
-0.00067548
-0.00067553
-0.00067559
-0.00067569
-0.00067586
-0.00067611
-0.00067644
-0.00067686
-0.00067736
-0.00067796
-0.00067865
-0.00067942
-0.00068026
-0.00068115
-0.00068209
-0.00068308
-0.00068413
-0.00068523
-0.00068638
-0.00068759
-0.00068886
-0.00069017
-0.00069154
-0.00069295
-0.00069442
-0.00069593
-0.00069750
-0.00069912
-0.00070081
-0.00070259
-0.00070447
-0.00070647
-0.00070857
-0.00071081
-0.00071321
-0.00071581
-0.00071866
-0.00072176
-0.00072512
-0.00072875
-0.00073266
-0.00073684
-0.00074130
-0.00074603
-0.00075102
-0.00075624
-0.00076168
-0.00076729
-0.00077307
-0.00077901
-0.00078511
-0.00079138
-0.00079781
-0.00080440
-0.00081111
-0.00081794
-0.00082487
-0.00083189
-0.00083898
-0.00084609
-0.00085322
-0.00086034
-0.00086745
-0.00087455
-0.00088165
-0.00088873
-0.00089579
-0.00090283
-0.00090986
-0.00091687
-0.00092388
-0.00093088
-0.00093790
-0.00094494
-0.00095199
-0.00095904
-0.00096609
-0.00097312
-0.00098014
-0.00098715
-0.00099415
-0.00100115
-0.00100814
-0.00101513
-0.00102213
-0.00102912
-0.00103607
-0.00104298
-0.00104983
-0.00105662
-0.00106333
-0.00106997
-0.00107649
-0.00108286
-0.00108906
-0.00109506
-0.00110084
-0.00110639
-0.00111170
-0.00111678
-0.00112166
-0.00112634
-0.00113087
-0.00113526
-0.00113954
-0.00114371
-0.00114777
-0.00115169
-0.00115548
-0.00115911
-0.00116259
-0.00116590
-0.00116902
-0.00117193
-0.00117461
-0.00117705
-0.00117925
-0.00118122
-0.00118298
-0.00118455
-0.00118594
-0.00118716
-0.00118819
-0.00118900
-0.00118957
-0.00118990
-0.00118996
-0.00118976
-0.00118928
-0.00118854
-0.00118751
-0.00118620
-0.00118462
-0.00118278
-0.00118070
-0.00117840
-0.00117588
-0.00117317
-0.00117026
-0.00116717
-0.00116391
-0.00116051
-0.00115697
-0.00115328
-0.00114946
-0.00114547
-0.00114130
-0.00113692
-0.00113232
-0.00112748
-0.00112237
-0.00111699
-0.00111135
-0.00110543
-0.00109924
-0.00109278
-0.00108604
-0.00107901
-0.00107170
-0.00106411
-0.00105624
-0.00104807
-0.00103959
-0.00103079
-0.00102168
-0.00101226
-0.00100255
-0.00099255
-0.00098230
-0.00097183
-0.00096116
-0.00095033
-0.00093935
-0.00092822
-0.00091695
-0.00090552
-0.00089392
-0.00088215
-0.00087018
-0.00085798
-0.00084551
-0.00083274
-0.00081965
-0.00080625
-0.00079255
-0.00077856
-0.00076432
-0.00074980
-0.00073501
-0.00071992
-0.00070452
-0.00068878
-0.00067268
-0.00065620
-0.00063936
-0.00062214
-0.00060455
-0.00058659
-0.00056826
-0.00054961
-0.00053066
-0.00051144
-0.00049201
-0.00047238
-0.00045258
-0.00043259
-0.00041241
-0.00039204
-0.00037151
-0.00035081
-0.00032999
-0.00030905
-0.00028800
-0.00026686
-0.00024563
-0.00022430
-0.00020289
-0.00018140
-0.00015985
-0.00013824
-0.00011659
-0.00009490
-0.00007317
-0.00005137
-0.00002947
-0.00000747
0.00001464
0.00003687
0.00005920
0.00008162
0.00010409
0.00012658
0.00014906
0.00017146
0.00019377
0.00021594
0.00023797
0.00025983
0.00028152
0.00030301
0.00032432
0.00034543
0.00036636
0.00038711
0.00040769
0.00042809
0.00044834
0.00046844
0.00048841
0.00050828
0.00052808
0.00054783
0.00056753
0.00058720
0.00060683
0.00062643
0.00064603
0.00066565
0.00068532
0.00070506
0.00072490
0.00074487
0.00076497
0.00078522
0.00080563
0.00082621
0.00084699
0.00086794
0.00088902
0.00091018
0.00093139
0.00095261
0.00097381
0.00099500
0.00101617
0.00103733
0.00105847
0.00107959
0.00110069
0.00112177
0.00114284
0.00116392
0.00118502
0.00120611
0.00122720
0.00124825
0.00126925
0.00129022
0.00131115
0.00133205
0.00135296
0.00137387
0.00139480
0.00141574
0.00143666
0.00145757
0.00147845
0.00149929
0.00152008
0.00154082
0.00156147
0.00158203
0.00160244
0.00162267
0.00164270
0.00166253
0.00168213
0.00170149
0.00172060
0.00173948
0.00175813
0.00177655
0.00179476
0.00181276
0.00183055
0.00184813
0.00186553
0.00188277
0.00189989
0.00191692
0.00193386
0.00195072
0.00196751
0.00198421
0.00200084
0.00201740
0.00203388
0.00205028
0.00206659
0.00208279
0.00209889
0.00211487
0.00213073
0.00214642
0.00216192
0.00217721
0.00219227
0.00220706
0.00222160
0.00223587
0.00224989
0.00226364
0.00227711
0.00229028
0.00230314
0.00231568
0.00232792
0.00233985
0.00235147
0.00236281
0.00237387
0.00238465
0.00239517
0.00240544
0.00241547
0.00242525
0.00243480
0.00244413
0.00245325
0.00246218
0.00247092
0.00247948
0.00248786
0.00249609
0.00250419
0.00251217
0.00252007
0.00252788
0.00253563
0.00254333
0.00255102
0.00255870
0.00256641
0.00257413
0.00258186
0.00258963
0.00259743
0.00260527
0.00261316
0.00262108
0.00262907
0.00263711
0.00264524
0.00265345
0.00266173
0.00267008
0.00267848
0.00268696
0.00269552
0.00270417
0.00271291
0.00272177
0.00273078
0.00273993
0.00274924
0.00275870
0.00276832
0.00277810
0.00278802
0.00279805
0.00280820
0.00281843
0.00282873
0.00283910
0.00284952
0.00286001
0.00287058
0.00288123
0.00289197
0.00290276
0.00291360
0.00292447
0.00293536
0.00294626
0.00295715
0.00296805
0.00297895
0.00298984
0.00300068
0.00301143
0.00302208
0.00303263
0.00304311
0.00305355
0.00306397
0.00307437
0.00308474
0.00309506
0.00310530
0.00311547
0.00312559
0.00313567
0.00314574
0.00315580
0.00316586
0.00317587
0.00318582
0.00319566
0.00320539
0.00321499
0.00322444
0.00323373
0.00324284
0.00325175
0.00326044
0.00326891
0.00327713
0.00328512
0.00329287
0.00330039
0.00330768
0.00331475
0.00332156
0.00332810
0.00333438
0.00334040
0.00334617
0.00335172
0.00335708
0.00336224
0.00336723
0.00337202
0.00337663
0.00338104
0.00338526
0.00338929
0.00339310
0.00339668
0.00339999
0.00340302
0.00340576
0.00340821
0.00341037
0.00341223
0.00341375
0.00341492
0.00341571
0.00341609
0.00341606
0.00341562
0.00341477
0.00341349
0.00341177
0.00340959
0.00340692
0.00340374
0.00340005
0.00339588
0.00339126
0.00338619
0.00338067
0.00337471
0.00336832
0.00336152
0.00335431
0.00334667
0.00333863
0.00333017
0.00332131
0.00331202
0.00330227
0.00329208
0.00328143
0.00327032
0.00325875
0.00324669
0.00323413
0.00322104
0.00320740
0.00319320
0.00317844
0.00316311
0.00314719
0.00313067
0.00311354
0.00309580
0.00307746
0.00305855
0.00303909
0.00301912
0.00299863
0.00297763
0.00295613
0.00293413
0.00291164
0.00288868
0.00286524
0.00284133
0.00281697
0.00279216
0.00276691
0.00274122
0.00271506
0.00268840
0.00266122
0.00263348
0.00260518
0.00257630
0.00254680
0.00251668
0.00248592
0.00245453
0.00242252
0.00238990
0.00235667
0.00232286
0.00228845
0.00225348
0.00221795
0.00218192
0.00214542
0.00210851
0.00207123
0.00203360
0.00199563
0.00195734
0.00191874
0.00187985
0.00184067
0.00180120
0.00176146
0.00172145
0.00168117
0.00164062
0.00159981
0.00155872
0.00151736
0.00147571
0.00143375
0.00139146
0.00134885
0.00130591
0.00126265
0.00121907
0.00117517
0.00113096
0.00108647
0.00104169
0.00099665
0.00095136
0.00090582
0.00086003
0.00081400
0.00076775
0.00072132
