-0.80712546
-1.61452845
-1.61463432
-1.61384495
-1.61217361
-1.60964283
-1.60627728
-1.60210142
-1.59713945
-1.59141530
-1.58495265
-1.57777493
-1.56990531
-1.56136668
-1.55218162
-1.54237246
-1.53196121
-1.52096960
-1.50941904
-1.49733066
-1.48472531
-1.47162355
-1.45804559
-1.44401135
-1.42954042
-1.41465211
-1.39936542
-1.38369908
-1.36767148
-1.35130071
-1.33460455
-1.31760044
-1.30030554
-1.28273666
-1.26491028
-1.24684257
-1.22854938
-1.21004625
-1.19134843
-1.17247083
-1.15342808
-1.13423447
-1.11490401
-1.09545037
-1.07588691
-1.05622667
-1.03648239
-1.01666648
-0.99679104
-0.97686787
-0.95690848
-0.93692408
-0.91692558
-0.89692359
-0.87692846
-0.85695020
-0.83699860
-0.81708312
-0.79721297
-0.77739710
-0.75764420
-0.73796270
-0.71836075
-0.69884624
-0.67942682
-0.66010989
-0.64090257
-0.62181177
-0.60284410
-0.58400596
-0.56530351
-0.54674268
-0.52832915
-0.51006836
-0.49196552
-0.47402560
-0.45625338
-0.43865339
-0.42122997
-0.40398723
-0.38692908
-0.37005920
-0.35338108
-0.33689805
-0.32061322
-0.30452954
-0.28864974
-0.27297640
-0.25751189
-0.24225844
-0.22721810
-0.21239277
-0.19778416
-0.18339383
-0.16922317
-0.15527346
-0.14154579
-0.12804112
-0.11476026
-0.10170389
-0.08887258
-0.07626676
-0.06388674
-0.05173267
-0.03980459
-0.02810239
-0.01662588
-0.00537473
0.00565149
0.01645330
0.02703133
0.03738628
0.04751897
0.05743035
0.06712145
0.07659342
0.08584743
0.09488473
0.10370665
0.11231457
0.12070995
0.12889432
0.13686923
0.14463633
0.15219730
0.15955388
0.16670788
0.17366115
0.18041557
0.18697311
0.19333575
0.19950554
0.20548454
0.21127489
0.21687878
0.22229843
0.22753608
0.23259401
0.23747446
0.24217976
0.24671225
0.25107434
0.25526845
0.25929703
0.26316254
0.26686744
0.27041420
0.27380532
0.27704331
0.28013070
0.28307003
0.28586383
0.28851467
0.29102510
0.29339772
0.29563509
0.29773977
0.29971429
0.30156117
0.30328294
0.30488212
0.30636124
0.30772279
0.30896928
0.31010320
0.31112702
0.31204318
0.31285410
0.31356220
0.31416986
0.31467947
0.31509343
0.31541414
0.31564402
0.31578545
0.31584082
0.31581246
0.31570266
0.31551368
0.31524775
0.31490707
0.31449381
0.31401016
0.31345826
0.31284026
0.31215827
0.31141435
0.31061059
0.30974905
0.30883178
0.30786081
0.30683811
0.30576561
0.30464524
0.30347883
0.30226823
0.30101520
0.29972149
0.29838885
0.29701894
0.29561344
0.29417397
0.29270215
0.29119956
0.28966777
0.28810835
0.28652283
0.28491268
0.28327938
0.28162437
0.27994907
0.27825487
0.27654314
0.27481522
0.27307240
0.27131599
0.26954727
0.26776748
0.26597784
0.26417953
0.26237368
0.26056141
0.25874381
0.25692195
0.25509688
0.25326957
0.25144102
0.24961215
0.24778391
0.24595716
0.24413277
0.24231160
0.24049447
0.23868217
0.23687548
0.23507511
0.23328179
0.23149622
0.22971909
0.22795108
0.22619283
0.22444493
0.22270798
0.22098252
0.21926911
0.21756827
0.21588047
0.21420619
0.21254585
0.21089986
0.20926862
0.20765256
0.20605207
0.20446753
0.20289929
0.20134766
0.19981292
0.19829535
0.19679520
0.19531271
0.19384814
0.19240170
0.19097358
0.18956396
0.18817299
0.18680078
0.18544745
0.18411309
0.18279778
0.18150160
0.18022463
0.17896693
0.17772853
0.17650948
0.17530980
0.17412952
0.17296864
0.17182717
0.17070509
0.16960241
0.16851912
0.16745524
0.16641076
0.16538565
0.16437988
0.16339337
0.16242606
0.16147785
0.16054866
0.15963838
0.15874694
0.15787423
0.15702015
0.15618452
0.15536716
0.15456790
0.15378654
0.15302287
0.15227670
0.15154782
0.15083606
0.15014121
0.14946310
0.14880150
0.14815620
0.14752699
0.14691363
0.14631589
0.14573354
0.14516636
0.14461416
0.14407675
0.14355394
0.14304555
0.14255141
0.14207136
0.14160522
0.14115278
0.14071383
0.14028817
0.13987559
0.13947587
0.13908879
0.13871413
0.13835168
0.13800122
0.13766255
0.13733548
0.13701978
0.13671523
0.13642160
0.13613867
0.13586623
0.13560404
0.13535184
0.13510939
0.13487641
0.13465266
0.13443786
0.13423174
0.13403406
0.13384458
0.13366310
0.13348939
0.13332323
0.13316440
0.13301266
0.13286776
0.13272944
0.13259747
0.13247166
0.13235182
0.13223777
0.13212934
0.13202639
0.13192874
0.13183623
0.13174871
0.13166599
0.13158790
0.13151427
0.13144490
0.13137958
0.13131810
0.13126023
0.13120574
0.13115444
0.13110612
0.13106059
0.13101765
0.13097713
0.13093884
0.13090264
0.13086840
0.13083602
0.13080538
0.13077636
0.13074886
0.13072275
0.13069793
0.13067428
0.13065169
0.13063005
0.13060924
0.13058915
0.13056970
0.13055080
0.13053238
0.13051433
0.13049657
0.13047897
0.13046142
0.13044385
0.13042617
0.13040832
0.13039021
0.13037175
0.13035286
0.13033346
0.13031347
0.13029280
0.13027136
0.13024908
0.13022586
0.13020162
0.13017630
0.13014983
0.13012216
0.13009320
0.13006291
0.13003124
0.12999813
0.12996359
0.12992759
0.12989012
0.12985116
0.12981069
0.12976864
0.12972499
0.12967969
0.12963270
0.12958400
0.12953357
0.12948140
0.12942747
0.12937178
0.12931427
0.12925493
0.12919371
0.12913060
0.12906559
0.12899865
0.12892977
0.12885894
0.12878612
0.12871130
0.12863442
0.12855544
0.12847434
0.12839110
0.12830572
0.12821825
0.12812871
0.12803714
0.12794357
0.12784798
0.12775036
0.12765067
0.12754891
0.12744509
0.12733923
0.12723133
0.12712141
0.12700947
0.12689554
0.12677965
0.12666183
0.12654214
0.12642061
0.12629725
0.12617205
0.12604499
0.12591603
0.12578516
0.12565235
0.12551756
0.12538077
0.12524197
0.12510118
0.12495839
0.12481359
0.12466677
0.12451793
0.12436706
0.12421419
0.12405933
0.12390249
0.12374369
0.12358291
0.12342015
0.12325539
0.12308863
0.12291991
0.12274924
0.12257665
0.12240215
0.12222574
0.12204744
0.12186728
0.12168531
0.12150153
0.12131595
0.12112858
0.12093942
0.12074848
0.12055576
0.12036126
0.12016497
0.11996691
0.11976709
0.11956554
0.11936228
0.11915733
0.11895071
0.11874245
0.11853259
0.11832116
0.11810820
0.11789369
0.11767763
0.11746003
0.11724089
0.11702022
0.11679799
0.11657422
0.11634891
0.11612211
0.11589386
0.11566421
0.11543319
0.11520082
0.11496714
0.11473216
0.11449588
0.11425830
0.11401941
0.11377920
0.11353769
0.11329487
0.11305076
0.11280539
0.11255879
0.11231098
0.11206196
0.11181175
0.11156036
0.11130781
0.11105411
0.11079928
0.11054333
0.11028627
0.11002811
0.10976886
0.10950853
0.10924713
0.10898469
0.10872123
0.10845676
0.10819127
0.10792478
0.10765732
0.10738895
0.10711972
0.10684968
0.10657889
0.10630738
0.10603520
0.10576239
0.10548897
0.10521499
0.10494049
0.10466549
0.10439000
0.10411403
0.10383761
0.10356074
0.10328346
0.10300578
0.10272773
0.10244933
0.10217061
0.10189159
0.10161227
0.10133264
0.10105268
0.10077239
0.10049177
0.10021086
0.09992968
0.09964824
0.09936655
0.09908457
0.09880228
0.09851970
0.09823684
0.09795373
0.09767039
0.09738681
0.09710301
0.09681901
0.09653487
0.09625062
0.09596631
0.09568195
0.09539755
0.09511311
0.09482863
0.09454409
0.09425951
0.09397487
0.09369020
0.09340553
0.09312087
0.09283626
0.09255170
0.09226722
0.09198282
0.09169850
0.09141427
0.09113014
0.09084615
0.09056234
0.09027872
0.08999533
0.08971215
0.08942919
0.08914645
0.08886395
0.08858173
0.08829982
0.08801825
0.08773707
0.08745634
0.08717611
0.08689646
0.08661744
0.08633909
0.08606143
0.08578445
0.08550814
0.08523248
0.08495744
0.08468299
0.08440912
0.08413580
0.08386302
0.08359076
0.08331902
0.08304778
0.08277708
0.08250694
0.08223745
0.08196867
0.08170064
0.08143341
0.08116702
0.08090149
0.08063688
0.08037324
0.08011061
0.07984903
0.07958852
0.07932911
0.07907084
0.07881372
0.07855775
0.07830294
0.07804927
0.07779675
0.07754539
0.07729518
0.07704612
0.07679817
0.07655130
0.07630543
0.07606050
0.07581644
0.07557319
0.07533067
0.07508885
0.07484766
0.07460707
0.07436701
0.07412745
0.07388833
0.07364964
0.07341137
0.07317353
0.07293613
0.07269917
0.07246267
0.07222662
0.07199106
0.07175595
0.07152130
0.07128708
0.07105330
0.07081995
0.07058700
0.07035442
0.07012217
0.06989022
0.06965854
0.06942711
0.06919590
0.06896489
0.06873406
0.06850335
0.06827271
0.06804212
0.06781157
0.06758108
0.06735066
0.06712034
0.06689010
0.06665988
0.06642963
0.06619928
0.06596877
0.06573810
0.06550727
0.06527631
0.06504522
0.06481400
0.06458266
0.06435123
0.06411974
0.06388821
0.06365668
0.06342515
0.06319360
0.06296202
0.06273041
0.06249876
0.06226705
0.06203530
0.06180348
0.06157163
0.06133973
0.06110777
0.06087572
0.06064351
0.06041112
0.06017853
0.05994572
0.05971272
0.05947953
0.05924614
0.05901256
0.05877874
0.05854466
0.05831028
0.05807558
0.05784058
0.05760529
0.05736973
0.05713392
0.05689789
0.05666170
0.05642539
0.05618901
0.05595261
0.05571623
0.05547989
0.05524360
0.05500735
0.05477118
0.05453512
0.05429918
0.05406341
0.05382782
0.05359244
0.05335727
0.05312230
0.05288752
0.05265293
0.05241852
0.05218429
0.05195024
0.05171635
0.05148260
0.05124897
0.05101547
0.05078206
0.05054871
0.05031543
0.05008222
0.04984910
0.04961607
0.04938315
0.04915038
0.04891781
0.04868548
0.04845343
0.04822172
0.04799037
0.04775945
0.04752899
0.04729904
0.04706967
0.04684093
0.04661288
0.04638557
0.04615902
0.04593325
0.04570828
0.04548411
0.04526073
0.04503815
0.04481636
0.04459535
0.04437512
0.04415565
0.04393690
0.04371884
0.04350145
0.04328471
0.04306859
0.04285309
0.04263821
0.04242398
0.04221040
0.04199749
0.04178527
0.04157372
0.04136284
0.04115262
0.04094308
0.04073424
0.04052610
0.04031869
0.04011205
0.03990622
0.03970122
0.03949707
0.03929381
0.03909143
0.03888997
0.03868943
0.03848979
0.03829102
0.03809306
0.03789588
0.03769943
0.03750368
0.03730859
0.03711412
0.03692023
0.03672690
0.03653413
0.03634195
0.03615037
0.03595941
0.03576908
0.03557937
0.03539028
0.03520179
0.03501391
0.03482666
0.03464010
0.03445425
0.03426913
0.03408474
0.03390110
0.03371820
0.03353606
0.03335467
0.03317400
0.03299404
0.03281476
0.03263618
0.03245831
0.03228114
0.03210467
0.03192886
0.03175367
0.03157906
0.03140497
0.03123136
0.03105820
0.03088547
0.03071317
0.03054129
0.03036985
0.03019887
0.03002837
0.02985838
0.02968893
0.02952000
0.02935163
0.02918383
0.02901666
0.02885016
0.02868437
0.02851926
0.02835483
0.02819110
0.02802807
0.02786576
0.02770418
0.02754334
0.02738323
0.02722382
0.02706511
0.02690706
0.02674965
0.02659283
0.02643658
0.02628085
0.02612563
0.02597089
0.02581659
0.02566270
0.02550916
0.02535596
0.02520306
0.02505046
0.02489817
0.02474620
0.02459460
0.02444338
0.02429254
0.02414208
0.02399197
0.02384219
0.02369271
0.02354350
0.02339457
0.02324590
0.02309747
0.02294925
0.02280122
0.02265336
0.02250564
0.02235805
0.02221059
0.02206324
0.02191602
0.02176895
0.02162202
0.02147523
0.02132858
0.02118208
0.02103573
0.02088956
0.02074357
0.02059772
0.02045200
0.02030636
0.02016077
0.02001518
0.01986953
0.01972379
0.01957794
0.01943197
0.01928589
0.01913972
0.01899349
0.01884722
0.01870094
0.01855465
0.01840835
0.01826203
0.01811569
0.01796934
0.01782296
0.01767658
0.01753020
0.01738384
0.01723749
0.01709116
0.01694485
0.01679855
0.01665227
0.01650599
0.01635973
0.01621349
0.01606728
0.01592114
0.01577508
0.01562910
0.01548321
0.01533738
0.01519161
0.01504591
0.01490026
0.01475466
0.01460910
0.01446360
0.01431818
0.01417286
0.01402762
0.01388246
0.01373740
0.01359244
0.01344760
0.01330291
0.01315838
0.01301404
0.01286991
0.01272597
0.01258222
0.01243864
0.01229521
0.01215192
0.01200877
0.01186576
0.01172286
0.01158004
0.01143728
0.01129456
0.01115186
0.01100920
0.01086656
0.01072395
0.01058137
0.01043883
0.01029635
0.01015393
0.01001159
0.00986934
0.00972719
0.00958518
0.00944330
0.00930158
0.00916003
0.00901866
0.00887751
0.00873659
0.00859594
0.00845559
0.00831555
0.00817585
0.00803652
0.00789757
0.00775902
0.00762090
0.00748322
0.00734600
0.00720923
0.00707289
0.00693696
0.00680141
0.00666628
0.00653158
0.00639734
0.00626359
0.00613034
0.00599760
0.00586543
0.00573386
0.00560295
0.00547274
0.00534330
0.00521466
0.00508687
0.00495996
0.00483396
0.00470894
0.00458496
0.00446207
0.00434031
0.00421971
0.00410028
0.00398204
0.00386498
0.00374911
0.00363446
0.00352101
0.00340876
0.00329769
0.00318780
0.00307904
0.00297138
0.00286478
0.00275920
0.00265458
0.00255090
0.00244814
0.00234632
0.00224543
0.00214545
0.00204635
0.00194809
0.00185066
0.00175410
0.00165843
0.00156368
0.00146987
0.00137700
0.00128508
0.00119409
0.00110400
0.00101481
0.00092649
0.00083904
0.00075245
0.00066675
0.00058193
0.00049803
0.00041505
0.00033299
0.00025185
0.00017160
0.00009225
0.00001377
-0.00006385
-0.00014065
-0.00021668
-0.00029199
-0.00036665
-0.00044071
-0.00051423
-0.00058725
-0.00065979
-0.00073186
-0.00080349
-0.00087473
-0.00094558
-0.00101611
-0.00108633
-0.00115626
-0.00122591
-0.00129530
-0.00136446
-0.00143341
-0.00150215
-0.00157069
-0.00163902
-0.00170717
-0.00177513
-0.00184289
-0.00191043
-0.00197776
-0.00204489
-0.00211187
-0.00217870
-0.00224542
-0.00231204
-0.00237858
-0.00244508
-0.00251160
-0.00257820
-0.00264493
-0.00271183
-0.00277892
-0.00284621
-0.00291371
-0.00298143
-0.00304934
-0.00311746
-0.00318578
-0.00325433
-0.00332314
-0.00339220
-0.00346153
-0.00353111
-0.00360095
-0.00367109
-0.00374155
-0.00381237
-0.00388357
-0.00395513
-0.00402707
-0.00409937
-0.00417205
-0.00424511
-0.00431855
-0.00439236
-0.00446654
-0.00454108
-0.00461597
-0.00469121
-0.00476681
-0.00484276
-0.00491903
-0.00499560
-0.00507249
-0.00514970
-0.00522723
-0.00530508
-0.00538323
-0.00546167
-0.00554037
-0.00561933
-0.00569854
-0.00577800
-0.00585769
-0.00593758
-0.00601764
-0.00609783
-0.00617812
-0.00625846
-0.00633880
-0.00641912
-0.00649938
-0.00657957
-0.00665965
-0.00673961
-0.00681942
-0.00689906
-0.00697852
-0.00705775
-0.00713672
-0.00721541
-0.00729380
-0.00737188
-0.00744965
-0.00752711
-0.00760426
-0.00768110
-0.00775766
-0.00783391
-0.00790987
-0.00798550
-0.00806081
-0.00813579
-0.00821040
-0.00828461
-0.00835837
-0.00843161
-0.00850430
-0.00857639
-0.00864786
-0.00871870
-0.00878889
-0.00885840
-0.00892721
-0.00899527
-0.00906257
-0.00912910
-0.00919484
-0.00925979
-0.00932394
-0.00938724
-0.00944963
-0.00951108
-0.00957153
-0.00963098
-0.00968940
-0.00974680
-0.00980316
-0.00985849
-0.00991281
-0.00996614
-0.01001850
-0.01006993
-0.01012046
-0.01017010
-0.01021885
-0.01026674
-0.01031377
-0.01035996
-0.01040532
-0.01044986
-0.01049359
-0.01053652
-0.01057865
-0.01061994
-0.01066036
-0.01069989
-0.01073854
-0.01077629
-0.01081318
-0.01084922
-0.01088443
-0.01091886
-0.01095253
-0.01098549
-0.01101778
-0.01104943
-0.01108043
-0.01111080
-0.01114052
-0.01116958
-0.01119799
-0.01122574
-0.01125286
-0.01127937
-0.01130529
-0.01133064
-0.01135542
-0.01137963
-0.01140326
-0.01142632
-0.01144880
-0.01147070
-0.01149201
-0.01151272
-0.01153282
-0.01155229
-0.01157110
-0.01158922
-0.01160663
-0.01162333
-0.01163933
-0.01165467
-0.01166936
-0.01168340
-0.01169677
-0.01170948
-0.01172153
-0.01173294
-0.01174376
-0.01175403
-0.01176379
-0.01177310
-0.01178200
-0.01179052
-0.01179871
-0.01180661
-0.01181428
-0.01182175
-0.01182908
-0.01183628
-0.01184340
-0.01185044
-0.01185741
-0.01186427
-0.01187103
-0.01187769
-0.01188426
-0.01189073
-0.01189712
-0.01190341
-0.01190960
-0.01191568
-0.01192168
-0.01192758
-0.01193340
-0.01193914
-0.01194483
-0.01195045
-0.01195601
-0.01196153
-0.01196702
-0.01197247
-0.01197791
-0.01198332
-0.01198871
-0.01199410
-0.01199951
-0.01200499
-0.01201056
-0.01201626
-0.01202211
-0.01202811
-0.01203428
-0.01204064
-0.01204721
-0.01205402
-0.01206107
-0.01206835
-0.01207585
-0.01208356
-0.01209147
-0.01209958
-0.01210791
-0.01211651
-0.01212542
-0.01213465
-0.01214421
-0.01215410
-0.01216429
-0.01217478
-0.01218556
-0.01219663
-0.01220797
-0.01221956
-0.01223135
-0.01224334
-0.01225551
-0.01226787
-0.01228041
-0.01229313
-0.01230600
-0.01231902
-0.01233219
-0.01234552
-0.01235902
-0.01237268
-0.01238647
-0.01240037
-0.01241439
-0.01242852
-0.01244278
-0.01245716
-0.01247167
-0.01248630
-0.01250103
-0.01251584
-0.01253072
-0.01254563
-0.01256056
-0.01257546
-0.01259027
-0.01260496
-0.01261949
-0.01263383
-0.01264795
-0.01266183
-0.01267548
-0.01268892
-0.01270214
-0.01271517
-0.01272800
-0.01274065
-0.01275314
-0.01276553
-0.01277786
-0.01279015
-0.01280242
-0.01281468
-0.01282696
-0.01283924
-0.01285153
-0.01286381
-0.01287608
-0.01288830
-0.01290044
-0.01291246
-0.01292433
-0.01293602
-0.01294749
-0.01295869
-0.01296959
-0.01298014
-0.01299035
-0.01300019
-0.01300967
-0.01301875
-0.01302744
-0.01303573
-0.01304363
-0.01305112
-0.01305821
-0.01306487
-0.01307111
-0.01307691
-0.01308228
-0.01308721
-0.01309175
-0.01309594
-0.01309980
-0.01310339
-0.01310673
-0.01310984
-0.01311272
-0.01311539
-0.01311786
-0.01312013
-0.01312220
-0.01312407
-0.01312568
-0.01312700
-0.01312799
-0.01312863
-0.01312889
-0.01312875
-0.01312817
-0.01312711
-0.01312552
-0.01312338
-0.01312068
-0.01311743
-0.01311364
-0.01310933
-0.01310450
-0.01309915
-0.01309327
-0.01308685
-0.01307990
-0.01307243
-0.01306445
-0.01305600
-0.01304713
-0.01303791
-0.01302840
-0.01301860
-0.01300855
-0.01299825
-0.01298776
-0.01297710
-0.01296629
-0.01295534
-0.01294426
-0.01293305
-0.01292171
-0.01291024
-0.01289866
-0.01288695
-0.01287511
-0.01286309
-0.01285085
-0.01283834
-0.01282555
-0.01281246
-0.01279910
-0.01278546
-0.01277156
-0.01275738
-0.01274293
-0.01272818
-0.01271314
-0.01269777
-0.01268207
-0.01266603
-0.01264965
-0.01263295
-0.01261594
-0.01259862
-0.01258103
-0.01256316
-0.01254502
-0.01252658
-0.01250783
-0.01248879
-0.01246948
-0.01244991
-0.01243007
-0.01240995
-0.01238954
-0.01236886
-0.01234792
-0.01232671
-0.01230523
-0.01228344
-0.01226130
-0.01223877
-0.01221587
-0.01219260
-0.01216900
-0.01214510
-0.01212092
-0.01209646
-0.01207175
-0.01204682
-0.01202170
-0.01199642
-0.01197103
-0.01194558
-0.01192013
-0.01189472
-0.01186938
-0.01184416
-0.01181908
-0.01179418
-0.01176948
-0.01174504
-0.01172090
-0.01169707
-0.01167355
-0.01165035
-0.01162748
-0.01160494
-0.01158273
-0.01156085
-0.01153927
-0.01151794
-0.01149682
-0.01147587
-0.01145503
-0.01143430
-0.01141365
-0.01139305
-0.01137250
-0.01135200
-0.01133155
-0.01131113
-0.01129075
-0.01127038
-0.01125003
-0.01122969
-0.01120937
-0.01118907
-0.01116878
-0.01114851
-0.01112828
-0.01110807
-0.01108790
-0.01106777
-0.01104769
-0.01102764
-0.01100763
-0.01098765
-0.01096771
-0.01094781
-0.01092795
-0.01090813
-0.01088834
-0.01086857
-0.01084886
-0.01082923
-0.01080973
-0.01079036
-0.01077111
-0.01075196
-0.01073293
-0.01071402
-0.01069523
-0.01067658
-0.01065810
-0.01063981
-0.01062171
-0.01060379
-0.01058605
-0.01056847
-0.01055106
-0.01053384
-0.01051684
-0.01050005
-0.01048349
-0.01046714
-0.01045101
-0.01043505
-0.01041926
-0.01040361
-0.01038811
-0.01037277
-0.01035761
-0.01034264
-0.01032784
-0.01031317
-0.01029860
-0.01028410
-0.01026968
-0.01025535
-0.01024114
-0.01022705
-0.01021309
-0.01019926
-0.01018554
-0.01017194
-0.01015843
-0.01014499
-0.01013160
-0.01011824
-0.01010488
-0.01009153
-0.01007819
-0.01006486
-0.01005158
-0.01003837
-0.01002527
-0.01001231
-0.00999953
-0.00998698
-0.00997471
-0.00996274
-0.00995110
-0.00993983
-0.00992892
-0.00991836
-0.00990811
-0.00989815
-0.00988848
-0.00987911
-0.00987005
-0.00986129
-0.00985280
-0.00984456
-0.00983655
-0.00982879
-0.00982130
-0.00981410
-0.00980723
-0.00980071
-0.00979459
-0.00978892
-0.00978373
-0.00977907
-0.00977495
-0.00977138
-0.00976838
-0.00976598
-0.00976424
-0.00976322
-0.00976295
-0.00976348
-0.00976481
-0.00976698
-0.00977002
-0.00977394
-0.00977876
-0.00978446
-0.00979102
-0.00979838
-0.00980650
-0.00981534
-0.00982487
-0.00983508
-0.00984597
-0.00985755
-0.00986981
-0.00988271
-0.00989619
-0.00991021
-0.00992470
-0.00993963
-0.00995494
-0.00997061
-0.00998657
-0.01000279
-0.01001923
-0.01003584
-0.01005260
-0.01006950
-0.01008654
-0.01010376
-0.01012119
-0.01013886
-0.01015680
-0.01017503
-0.01019354
-0.01021233
-0.01023138
-0.01025067
-0.01027016
-0.01028984
-0.01030967
-0.01032963
-0.01034967
-0.01036977
-0.01038988
-0.01041000
-0.01043014
-0.01045033
-0.01047061
-0.01049099
-0.01051151
-0.01053216
-0.01055293
-0.01057379
-0.01059474
-0.01061579
-0.01063696
-0.01065828
-0.01067976
-0.01070140
-0.01072321
-0.01074522
-0.01076743
-0.01078989
-0.01081264
-0.01083571
-0.01085914
-0.01088297
-0.01090721
-0.01093188
-0.01095697
-0.01098252
-0.01100854
-0.01103505
-0.01106207
-0.01108958
-0.01111757
-0.01114597
-0.01117474
-0.01120381
-0.01123311
-0.01126264
-0.01129235
-0.01132222
-0.01135222
-0.01138229
-0.01141240
-0.01144251
-0.01147257
-0.01150256
-0.01153244
-0.01156220
-0.01159183
-0.01162130
-0.01165060
-0.01167974
-0.01170873
-0.01173759
-0.01176630
-0.01179487
-0.01182327
-0.01185149
-0.01187951
-0.01190732
-0.01193489
-0.01196219
-0.01198917
-0.01201582
-0.01204209
-0.01206796
-0.01209341
-0.01211839
-0.01214288
-0.01216682
-0.01219020
-0.01221297
-0.01223510
-0.01225656
-0.01227732
-0.01229736
-0.01231666
-0.01233519
-0.01235296
-0.01236996
-0.01238620
-0.01240167
-0.01241637
-0.01243026
-0.01244335
-0.01245563
-0.01246708
-0.01247772
-0.01248754
-0.01249653
-0.01250465
-0.01251190
-0.01251826
-0.01252372
-0.01252826
-0.01253182
-0.01253433
-0.01253575
-0.01253603
-0.01253515
-0.01253309
-0.01252984
-0.01252541
-0.01251979
-0.01251295
-0.01250484
-0.01249543
-0.01248469
-0.01247257
-0.01245905
-0.01244414
-0.01242784
-0.01241016
-0.01239112
-0.01237070
-0.01234894
-0.01232585
-0.01230146
-0.01227575
-0.01224874
-0.01222038
-0.01219068
-0.01215964
-0.01212728
-0.01209357
-0.01205852
-0.01202210
-0.01198432
-0.01194516
-0.01190466
-0.01186282
-0.01181967
-0.01177523
-0.01172951
-0.01168254
-0.01163437
-0.01158509
-0.01153476
-0.01148341
-0.01143106
-0.01137771
-0.01132337
-0.01126806
-0.01121182
-0.01115467
-0.01109662
-0.01103769
-0.01097787
-0.01091716
-0.01085560
-0.01079321
-0.01073002
-0.01066607
-0.01060140
-0.01053605
-0.01047005
-0.01040346
-0.01033631
-0.01026865
-0.01020053
-0.01013200
-0.01006308
-0.00999379
-0.00992417
-0.00985422
-0.00978397
-0.00971344
-0.00964264
-0.00957160
-0.00950033
-0.00942884
-0.00935714
-0.00928525
-0.00921319
-0.00914101
-0.00906873
-0.00899638
-0.00892401
-0.00885165
-0.00877932
-0.00870707
-0.00863493
-0.00856295
-0.00849116
-0.00841961
-0.00834834
-0.00827739
-0.00820679
-0.00813660
-0.00806684
-0.00799757
-0.00792883
-0.00786067
-0.00779314
-0.00772627
-0.00766011
-0.00759467
-0.00752997
-0.00746605
-0.00740293
-0.00734064
-0.00727922
-0.00721872
-0.00715918
-0.00710063
-0.00704309
-0.00698654
-0.00693098
-0.00687638
-0.00682273
-0.00677004
-0.00671831
-0.00666758
-0.00661787
-0.00656920
-0.00652160
-0.00647511
-0.00642977
-0.00638561
-0.00634270
-0.00630110
-0.00626085
-0.00622195
-0.00618442
-0.00614826
-0.00611348
-0.00608012
-0.00604818
-0.00601768
-0.00598858
-0.00596089
-0.00593456
-0.00590958
-0.00588593
-0.00586357
-0.00584252
-0.00582275
-0.00580425
-0.00578698
-0.00577091
-0.00575601
-0.00574226
-0.00572965
-0.00571817
-0.00570779
-0.00569850
-0.00569027
-0.00568309
-0.00567694
-0.00567178
-0.00566762
-0.00566444
-0.00566225
-0.00566108
-0.00566091
-0.00566176
-0.00566358
-0.00566639
-0.00567015
-0.00567484
-0.00568042
-0.00568684
-0.00569405
-0.00570200
-0.00571062
-0.00571984
-0.00572965
-0.00573998
-0.00575081
-0.00576204
-0.00577359
-0.00578540
-0.00579742
-0.00580960
-0.00582192
-0.00583433
-0.00584679
-0.00585926
-0.00587170
-0.00588408
-0.00589637
-0.00590857
-0.00592068
-0.00593270
-0.00594461
-0.00595642
-0.00596812
-0.00597970
-0.00599117
-0.00600252
-0.00601376
-0.00602489
-0.00603592
-0.00604683
-0.00605758
-0.00606815
-0.00607852
-0.00608866
-0.00609857
-0.00610823
-0.00611764
-0.00612676
-0.00613558
-0.00614411
-0.00615236
-0.00616031
-0.00616796
-0.00617530
-0.00618230
-0.00618895
-0.00619520
-0.00620104
-0.00620644
-0.00621136
-0.00621577
-0.00621966
-0.00622300
-0.00622579
-0.00622801
-0.00622965
-0.00623068
-0.00623110
-0.00623090
-0.00623010
-0.00622870
-0.00622669
-0.00622408
-0.00622086
-0.00621703
-0.00621257
-0.00620748
-0.00620176
-0.00619538
-0.00618829
-0.00618048
-0.00617191
-0.00616254
-0.00615234
-0.00614128
-0.00612933
-0.00611648
-0.00610270
-0.00608801
-0.00607242
-0.00605596
-0.00603864
-0.00602046
-0.00600142
-0.00598155
-0.00596087
-0.00593940
-0.00591717
-0.00589421
-0.00587056
-0.00584625
-0.00582131
-0.00579579
-0.00576971
-0.00574314
-0.00571614
-0.00568874
-0.00566100
-0.00563293
-0.00560454
-0.00557583
-0.00554682
-0.00551749
-0.00548784
-0.00545788
-0.00542759
-0.00539697
-0.00536600
-0.00533468
-0.00530303
-0.00527106
-0.00523877
-0.00520621
-0.00517341
-0.00514037
-0.00510709
-0.00507358
-0.00503985
-0.00500590
-0.00497176
-0.00493745
-0.00490297
-0.00486834
-0.00483354
-0.00479856
-0.00476341
-0.00472810
-0.00469268
-0.00465720
-0.00462169
-0.00458617
-0.00455063
-0.00451506
-0.00447945
-0.00444383
-0.00440823
-0.00437265
-0.00433710
-0.00430158
-0.00426608
-0.00423060
-0.00419513
-0.00415969
-0.00412428
-0.00408892
-0.00405363
-0.00401846
-0.00398346
-0.00394867
-0.00391412
-0.00387984
-0.00384589
-0.00381232
-0.00377920
-0.00374658
-0.00371450
-0.00368301
-0.00365210
-0.00362176
-0.00359198
-0.00356275
-0.00353404
-0.00350586
-0.00347822
-0.00345112
-0.00342457
-0.00339857
-0.00337310
-0.00334811
-0.00332355
-0.00329938
-0.00327554
-0.00325202
-0.00322877
-0.00320578
-0.00318304
-0.00316055
-0.00313831
-0.00311631
-0.00309455
-0.00307305
-0.00305183
-0.00303088
-0.00301022
-0.00298987
-0.00296983
-0.00295012
-0.00293074
-0.00291170
-0.00289302
-0.00287471
-0.00285679
-0.00283931
-0.00282227
-0.00280569
-0.00278956
-0.00277388
-0.00275864
-0.00274383
-0.00272943
-0.00271542
-0.00270177
-0.00268846
-0.00267550
-0.00266288
-0.00265060
-0.00263869
-0.00262713
-0.00261596
-0.00260516
-0.00259473
-0.00258467
-0.00257496
-0.00256559
-0.00255654
-0.00254783
-0.00253943
-0.00253136
-0.00252359
-0.00251615
-0.00250903
-0.00250224
-0.00249580
-0.00248967
-0.00248385
-0.00247834
-0.00247314
-0.00246825
-0.00246364
-0.00245927
-0.00245512
-0.00245114
-0.00244732
-0.00244362
-0.00243999
-0.00243642
-0.00243289
-0.00242938
-0.00242585
-0.00242226
-0.00241855
-0.00241467
-0.00241060
-0.00240629
-0.00240172
-0.00239688
-0.00239173
-0.00238626
-0.00238044
-0.00237428
-0.00236777
-0.00236096
-0.00235386
-0.00234649
-0.00233886
-0.00233100
-0.00232295
-0.00231471
-0.00230630
-0.00229773
-0.00228901
-0.00228016
-0.00227116
-0.00226203
-0.00225275
-0.00224334
-0.00223378
-0.00222408
-0.00221422
-0.00220420
-0.00219398
-0.00218354
-0.00217285
-0.00216187
-0.00215058
-0.00213893
-0.00212690
-0.00211448
-0.00210162
-0.00208831
-0.00207453
-0.00206031
-0.00204562
-0.00203046
-0.00201481
-0.00199865
-0.00198197
-0.00196478
-0.00194708
-0.00192887
-0.00191015
-0.00189092
-0.00187123
-0.00185109
-0.00183055
-0.00180964
-0.00178836
-0.00176674
-0.00174478
-0.00172250
-0.00169990
-0.00167702
-0.00165386
-0.00163043
-0.00160674
-0.00158279
-0.00155855
-0.00153400
-0.00150914
-0.00148394
-0.00145842
-0.00143257
-0.00140641
-0.00137992
-0.00135313
-0.00132602
-0.00129862
-0.00127095
-0.00124303
-0.00121486
-0.00118649
-0.00115793
-0.00112922
-0.00110037
-0.00107140
-0.00104233
-0.00101319
-0.00098398
-0.00095473
-0.00092544
-0.00089614
-0.00086681
-0.00083748
-0.00080814
-0.00077880
-0.00074947
-0.00072016
-0.00069088
-0.00066159
-0.00063227
-0.00060284
-0.00057326
-0.00054351
-0.00051356
-0.00048341
-0.00045305
-0.00042250
-0.00039176
-0.00036082
-0.00032967
-0.00029830
-0.00026669
-0.00023486
-0.00020283
-0.00017063
-0.00013828
-0.00010580
-0.00007324
-0.00004062
-0.00000795
0.00002474
0.00005748
0.00009025
0.00012304
0.00015580
0.00018849
0.00022109
0.00025356
0.00028588
0.00031801
0.00034992
0.00038162
0.00041306
0.00044425
0.00047516
0.00050579
0.00053615
0.00056622
0.00059601
0.00062548
0.00065464
0.00068348
0.00071201
0.00074022
0.00076807
0.00079557
0.00082270
0.00084947
0.00087585
0.00090182
0.00092736
0.00095242
0.00097700
0.00100109
0.00102467
0.00104774
0.00107029
0.00109232
0.00111387
0.00113498
0.00115571
0.00117610
0.00119619
0.00121600
0.00123553
0.00125477
0.00127374
0.00129244
0.00131090
0.00132913
0.00134715
0.00136497
0.00138260
0.00140006
0.00141736
0.00143451
0.00145153
0.00146841
0.00148517
0.00150182
0.00151834
0.00153475
0.00155106
0.00156729
0.00158344
0.00159952
0.00161550
0.00163139
0.00164717
0.00166283
0.00167838
0.00169381
0.00170911
0.00172428
0.00173931
0.00175422
0.00176903
0.00178372
0.00179829
0.00181269
0.00182690
0.00184092
0.00185477
0.00186845
0.00188197
0.00189532
0.00190852
0.00192156
0.00193445
0.00194720
0.00195982
0.00197233
0.00198472
0.00199700
0.00200918
0.00202123
0.00203314
0.00204488
0.00205643
0.00206778
0.00207890
0.00208978
0.00210041
0.00211077
0.00212086
0.00213067
0.00214022
0.00214951
0.00215857
0.00216743
0.00217612
0.00218467
0.00219310
0.00220142
0.00220964
0.00221778
0.00222585
0.00223386
0.00224182
0.00224976
0.00225770
0.00226569
0.00227374
0.00228189
0.00229013
0.00229844
0.00230681
0.00231521
0.00232360
0.00233193
0.00234017
0.00234829
0.00235628
0.00236410
0.00237173
0.00237915
0.00238637
0.00239339
0.00240024
0.00240693
0.00241349
0.00241999
0.00242647
0.00243299
0.00243955
0.00244614
0.00245273
0.00245928
0.00246578
0.00247225
0.00247870
0.00248516
0.00249166
0.00249820
0.00250477
0.00251135
0.00251796
0.00252460
0.00253128
0.00253803
0.00254484
0.00255172
0.00255867
0.00256569
0.00257278
0.00257993
0.00258716
0.00259445
0.00260184
0.00260933
0.00261694
0.00262473
0.00263270
0.00264093
0.00264944
0.00265825
0.00266735
0.00267675
0.00268643
0.00269639
0.00270662
0.00271712
0.00272790
0.00273895
0.00275029
0.00276192
0.00277383
0.00278601
0.00279845
0.00281112
0.00282401
0.00283713
0.00285046
0.00286397
0.00287764
0.00289144
0.00290535
0.00291935
0.00293345
0.00294767
0.00296204
0.00297660
0.00299136
0.00300632
0.00302149
0.00303687
0.00305249
0.00306834
0.00308441
0.00310071
0.00311725
0.00313403
0.00315108
0.00316845
0.00318618
0.00320430
0.00322281
0.00324169
0.00326093
0.00328051
0.00330043
0.00332067
0.00334124
0.00336210
0.00338322
0.00340457
0.00342612
0.00344784
0.00346969
0.00349165
0.00351370
0.00353584
0.00355803
0.00358021
0.00360230
0.00362423
0.00364595
0.00366745
0.00368872
0.00370975
0.00373051
0.00375102
0.00377124
0.00379117
0.00381077
0.00383001
0.00384889
0.00386739
0.00388547
0.00390311
0.00392028
0.00393697
0.00395317
0.00396889
0.00398411
0.00399884
0.00401306
0.00402677
0.00403999
0.00405274
0.00406500
0.00407678
0.00408809
0.00409892
0.00410930
0.00411919
0.00412858
0.00413747
0.00414588
0.00415381
0.00416126
0.00416821
0.00417467
0.00418061
0.00418604
0.00419095
0.00419533
0.00419919
0.00420254
0.00420542
0.00420784
0.00420982
0.00421136
0.00421244
0.00421306
0.00421320
0.00421285
0.00421200
0.00421063
0.00420877
0.00420639
0.00420350
0.00420006
0.00419605
0.00419145
0.00418626
0.00418050
0.00417419
0.00416736
0.00416000
0.00415212
0.00414372
0.00413481
0.00412538
0.00411543
0.00410496
0.00409398
0.00408252
0.00407059
0.00405821
0.00404541
0.00403216
0.00401845
0.00400420
0.00398937
0.00397393
0.00395789
0.00394124
0.00392401
0.00390622
0.00388789
0.00386905
0.00384973
0.00382997
0.00380979
0.00378921
0.00376820
0.00374674
0.00372481
0.00370237
0.00367939
0.00365585
0.00363175
0.00360709
0.00358186
0.00355607
0.00352973
0.00350286
0.00347543
0.00344743
0.00341880
0.00338951
0.00335956
0.00332894
0.00329768
0.00326582
0.00323337
0.00320037
0.00316686
0.00313289
0.00309847
0.00306365
0.00302845
0.00299290
0.00295706
0.00292096
0.00288464
0.00284812
0.00281142
0.00277454
0.00273753
0.00270038
0.00266309
0.00262568
0.00258815
0.00255050
0.00251274
0.00247487
0.00243691
0.00239884
0.00236064
0.00232230
0.00228382
0.00224518
0.00220639
0.00216742
0.00212827
0.00208894
0.00204943
0.00200977
0.00196999
0.00193010
0.00189011
0.00185003
0.00180989
0.00176972
0.00172955
0.00168943
0.00164940
0.00160950
0.00156975
0.00153019
0.00149084
0.00145171
0.00141281
0.00137416
0.00133576
0.00129761
0.00125969
0.00122200
0.00118452
0.00114725
0.00111017
0.00107328
0.00103657
0.00100005
0.00096372
0.00092759
0.00089168
0.00085600
0.00082056
0.00078535
0.00075041
0.00071574
0.00068139
0.00064737
0.00061369
0.00058034
0.00054733
0.00051467
0.00048236
0.00045041
0.00041882
0.00038758
0.00035672
0.00032622
0.00029609
0.00026632
0.00023692
0.00020790
0.00017925
0.00015097
0.00012303
0.00009542
0.00006814
0.00004116
0.00001448
-0.00001190
-0.00003796
-0.00006367
-0.00008901
-0.00011397
-0.00013854
-0.00016273
-0.00018656
-0.00021008
-0.00023334
-0.00025641
-0.00027929
-0.00030199
-0.00032447
-0.00034675
-0.00036882
-0.00039071
-0.00041242
-0.00043397
-0.00045534
-0.00047653
-0.00049752
-0.00051830
-0.00053885
-0.00055919
-0.00057934
-0.00059935
-0.00061925
-0.00063907
-0.00065881
-0.00067848
-0.00069807
-0.00071756
-0.00073693
-0.00075618
-0.00077528
-0.00079424
-0.00081306
-0.00083174
-0.00085028
-0.00086866
-0.00088690
-0.00090500
-0.00092298
-0.00094086
-0.00095864
-0.00097631
-0.00099384
-0.00101122
-0.00102843
-0.00104543
-0.00106220
-0.00107871
-0.00109497
-0.00111096
-0.00112672
-0.00114227
-0.00115762
-0.00117278
-0.00118776
-0.00120253
-0.00121709
-0.00123145
-0.00124560
-0.00125956
-0.00127334
-0.00128694
-0.00130038
-0.00131366
-0.00132674
-0.00133961
-0.00135223
-0.00136458
-0.00137666
-0.00138847
-0.00140006
-0.00141145
-0.00142266
-0.00143368
-0.00144449
-0.00145508
-0.00146544
-0.00147557
-0.00148543
-0.00149502
-0.00150432
-0.00151331
-0.00152198
-0.00153031
-0.00153831
-0.00154600
-0.00155340
-0.00156051
-0.00156735
-0.00157394
-0.00158029
-0.00158641
-0.00159229
-0.00159795
-0.00160336
-0.00160853
-0.00161344
-0.00161808
-0.00162243
-0.00162649
-0.00163022
-0.00163360
-0.00163663
-0.00163931
-0.00164166
-0.00164367
-0.00164536
-0.00164671
-0.00164771
-0.00164837
-0.00164869
-0.00164866
-0.00164832
-0.00164768
-0.00164676
-0.00164560
-0.00164420
-0.00164254
-0.00164061
-0.00163840
-0.00163593
-0.00163320
-0.00163025
-0.00162709
-0.00162371
-0.00162011
-0.00161632
-0.00161234
-0.00160819
-0.00160388
-0.00159943
-0.00159484
-0.00159011
-0.00158528
-0.00158034
-0.00157532
-0.00157021
-0.00156504
-0.00155982
-0.00155457
-0.00154932
-0.00154408
-0.00153886
-0.00153366
-0.00152847
-0.00152331
-0.00151815
-0.00151300
-0.00150784
-0.00150266
-0.00149751
-0.00149240
-0.00148735
-0.00148240
-0.00147759
-0.00147296
-0.00146855
-0.00146437
-0.00146048
-0.00145690
-0.00145366
-0.00145081
-0.00144835
-0.00144632
-0.00144471
-0.00144356
-0.00144287
-0.00144263
-0.00144281
-0.00144341
-0.00144442
-0.00144588
-0.00144784
-0.00145034
-0.00145340
-0.00145701
-0.00146116
-0.00146583
-0.00147097
-0.00147654
-0.00148250
-0.00148880
-0.00149539
-0.00150223
-0.00150932
-0.00151664
-0.00152419
-0.00153200
-0.00154010
-0.00154855
-0.00155734
-0.00156646
-0.00157591
-0.00158568
-0.00159575
-0.00160613
-0.00161678
-0.00162768
-0.00163877
-0.00165002
-0.00166142
-0.00167294
-0.00168456
-0.00169626
-0.00170799
-0.00171969
-0.00173129
-0.00174277
-0.00175409
-0.00176525
-0.00177622
-0.00178694
-0.00179739
-0.00180752
-0.00181730
-0.00182668
-0.00183565
-0.00184421
-0.00185236
-0.00186014
-0.00186755
-0.00187464
-0.00188140
-0.00188785
-0.00189399
-0.00189984
-0.00190541
-0.00191073
-0.00191579
-0.00192062
-0.00192525
-0.00192972
-0.00193407
-0.00193831
-0.00194245
-0.00194648
-0.00195038
-0.00195411
-0.00195762
-0.00196085
-0.00196375
-0.00196628
-0.00196842
-0.00197012
-0.00197136
-0.00197212
-0.00197240
-0.00197219
-0.00197152
-0.00197040
-0.00196882
-0.00196680
-0.00196437
-0.00196153
-0.00195831
-0.00195473
-0.00195081
-0.00194654
-0.00194195
-0.00193703
-0.00193179
-0.00192624
-0.00192038
-0.00191421
-0.00190776
-0.00190100
-0.00189392
-0.00188650
-0.00187872
-0.00187060
-0.00186216
-0.00185342
-0.00184442
-0.00183515
-0.00182566
-0.00181595
-0.00180603
-0.00179591
-0.00178560
-0.00177509
-0.00176441
-0.00175361
-0.00174273
-0.00173181
-0.00172087
-0.00170992
-0.00169898
-0.00168810
-0.00167730
-0.00166664
-0.00165614
-0.00164581
-0.00163567
-0.00162571
-0.00161595
-0.00160641
-0.00159710
-0.00158805
-0.00157925
-0.00157068
-0.00156233
-0.00155421
-0.00154631
-0.00153865
-0.00153122
-0.00152402
-0.00151705
-0.00151032
-0.00150384
-0.00149760
-0.00149161
-0.00148585
-0.00148029
-0.00147494
-0.00146980
-0.00146488
-0.00146020
-0.00145575
-0.00145153
-0.00144756
-0.00144383
-0.00144037
-0.00143718
-0.00143428
-0.00143168
-0.00142937
-0.00142736
-0.00142563
-0.00142419
-0.00142302
-0.00142214
-0.00142157
-0.00142132
-0.00142136
-0.00142168
-0.00142225
-0.00142304
-0.00142407
-0.00142533
-0.00142681
-0.00142850
-0.00143039
-0.00143245
-0.00143467
-0.00143701
-0.00143943
-0.00144191
-0.00144446
-0.00144707
-0.00144974
-0.00145245
-0.00145520
-0.00145796
-0.00146072
-0.00146349
-0.00146624
-0.00146897
-0.00147166
-0.00147427
-0.00147680
-0.00147923
-0.00148156
-0.00148380
-0.00148595
-0.00148800
-0.00148994
-0.00149175
-0.00149338
-0.00149482
-0.00149602
-0.00149696
-0.00149762
-0.00149800
-0.00149809
-0.00149785
-0.00149725
-0.00149623
-0.00149477
-0.00149286
-0.00149048
-0.00148764
-0.00148431
-0.00148050
-0.00147621
-0.00147143
-0.00146613
-0.00146032
-0.00145401
-0.00144722
-0.00143997
-0.00143226
-0.00142412
-0.00141555
-0.00140657
-0.00139717
-0.00138732
-0.00137701
-0.00136625
-0.00135507
-0.00134352
-0.00133160
-0.00131934
-0.00130675
-0.00129382
-0.00128057
-0.00126701
-0.00125313
-0.00123893
-0.00122440
-0.00120957
-0.00119443
-0.00117898
-0.00116322
-0.00114712
-0.00113065
-0.00111378
-0.00109650
-0.00107880
-0.00106070
-0.00104219
-0.00102326
-0.00100394
-0.00098427
-0.00096430
-0.00094412
-0.00092376
-0.00090328
-0.00088268
-0.00086194
-0.00084108
-0.00082011
-0.00079906
-0.00077791
-0.00075667
-0.00073533
-0.00071387
-0.00069232
-0.00067068
-0.00064900
-0.00062730
-0.00060560
-0.00058390
-0.00056218
-0.00054045
-0.00051871
-0.00049692
-0.00047510
-0.00045324
-0.00043135
-0.00040941
-0.00038742
-0.00036533
-0.00034312
-0.00032076
-0.00029827
-0.00027568
-0.00025303
-0.00023035
-0.00020768
-0.00018504
-0.00016249
-0.00014003
-0.00011765
-0.00009529
-0.00007290
-0.00005047
-0.00002795
-0.00000534
0.00001740
0.00004032
0.00006343
0.00008674
0.00011022
0.00013388
0.00015771
0.00018172
0.00020592
0.00023030
0.00025488
0.00027969
0.00030474
0.00033007
0.00035571
0.00038167
0.00040797
0.00043458
0.00046149
0.00048864
0.00051599
0.00054347
0.00057104
0.00059867
0.00062635
0.00065407
0.00068182
0.00070964
0.00073752
0.00076547
0.00079350
0.00082163
0.00084985
0.00087817
0.00090658
0.00093507
0.00096363
0.00099224
0.00102086
0.00104946
0.00107804
0.00110661
0.00113521
0.00116385
0.00119252
0.00122122
0.00124995
0.00127871
0.00130751
0.00133636
0.00136525
0.00139416
0.00142309
0.00145200
0.00148086
0.00150964
0.00153832
0.00156690
0.00159540
0.00162380
0.00165209
0.00168023
0.00170818
0.00173592
0.00176344
0.00179075
0.00181784
0.00184468
0.00187128
0.00189765
0.00192385
0.00194992
0.00197589
0.00200176
0.00202754
0.00205322
0.00207881
0.00210432
0.00212978
0.00215517
0.00218050
0.00220574
0.00223087
0.00225586
0.00228068
0.00230529
0.00232968
0.00235381
0.00237763
0.00240111
0.00242424
0.00244698
0.00246933
0.00249128
0.00251285
0.00253403
0.00255486
0.00257533
0.00259547
0.00261529
0.00263481
0.00265402
0.00267290
0.00269142
0.00270956
0.00272734
0.00274475
0.00276180
0.00277850
0.00279485
0.00281084
0.00282649
0.00284181
0.00285678
0.00287141
0.00288571
0.00289969
0.00291334
0.00292665
0.00293957
0.00295206
0.00296406
0.00297552
0.00298643
0.00299678
0.00300660
0.00301587
0.00302461
0.00303282
0.00304050
0.00304765
0.00305424
0.00306028
0.00306576
0.00307066
0.00307501
0.00307879
0.00308197
0.00308456
0.00308653
0.00308789
0.00308865
0.00308878
0.00308828
0.00308719
0.00308552
0.00308332
0.00308061
0.00307742
0.00307375
0.00306957
0.00306490
0.00305970
0.00305398
0.00304772
0.00304088
0.00303344
0.00302537
0.00301664
0.00300725
0.00299721
0.00298652
0.00297520
0.00296327
0.00295076
0.00293770
0.00292412
0.00291004
0.00289546
0.00288042
0.00286494
0.00284910
0.00283292
0.00281645
0.00279967
0.00278260
0.00276526
0.00274764
0.00272976
0.00271166
0.00269338
0.00267494
0.00265640
0.00263775
0.00261903
0.00260022
0.00258132
0.00256230
0.00254316
0.00252386
0.00250440
0.00248476
0.00246497
0.00244502
0.00242494
0.00240472
0.00238437
0.00236392
0.00234340
0.00232284
0.00230229
0.00228175
0.00226125
0.00224081
0.00222046
0.00220026
0.00218024
0.00216040
0.00214074
0.00212126
0.00210195
0.00208280
0.00206382
0.00204502
0.00202640
0.00200795
0.00198966
0.00197155
0.00195359
0.00193579
0.00191815
0.00190068
0.00188339
0.00186628
0.00184938
0.00183268
0.00181619
0.00179993
0.00178390
0.00176811
0.00175254
0.00173719
0.00172206
0.00170716
0.00169251
0.00167813
0.00166404
0.00165024
0.00163675
0.00162358
0.00161075
0.00159825
0.00158611
0.00157436
0.00156302
0.00155210
0.00154160
0.00153151
0.00152181
0.00151248
0.00150352
0.00149492
0.00148666
0.00147872
0.00147106
0.00146365
0.00145645
0.00144945
0.00144263
0.00143598
0.00142947
0.00142309
0.00141684
0.00141073
0.00140478
0.00139903
0.00139350
0.00138821
0.00138320
0.00137848
0.00137410
0.00137007
0.00136642
0.00136316
0.00136028
0.00135778
0.00135565
0.00135391
0.00135257
0.00135165
0.00135114
0.00135106
0.00135142
0.00135225
0.00135355
0.00135530
0.00135749
0.00136009
0.00136309
0.00136647
0.00137021
0.00137430
0.00137873
0.00138347
0.00138848
0.00139375
0.00139926
0.00140503
0.00141111
0.00141753
0.00142427
0.00143135
0.00143874
0.00144643
0.00145441
0.00146265
0.00147110
0.00147977
0.00148864
0.00149769
0.00150692
0.00151629
0.00152581
0.00153543
0.00154514
0.00155489
0.00156464
0.00157435
0.00158396
0.00159342
0.00160269
0.00161174
0.00162055
0.00162911
0.00163740
0.00164543
0.00165321
0.00166076
0.00166811
0.00167532
0.00168241
0.00168938
0.00169625
0.00170303
0.00170974
0.00171638
0.00172295
0.00172949
0.00173600
0.00174252
0.00174905
0.00175557
0.00176209
0.00176858
0.00177505
0.00178151
0.00178799
0.00179453
0.00180115
0.00180786
0.00181465
0.00182151
0.00182840
0.00183531
0.00184221
0.00184909
0.00185593
0.00186273
0.00186946
0.00187611
0.00188266
0.00188910
0.00189543
0.00190166
0.00190776
0.00191371
0.00191947
0.00192505
0.00193042
0.00193558
0.00194052
0.00194519
0.00194960
0.00195373
0.00195757
0.00196113
0.00196442
0.00196744
0.00197018
0.00197266
0.00197489
0.00197687
0.00197861
0.00198012
0.00198140
0.00198244
0.00198321
0.00198370
0.00198389
0.00198376
0.00198329
0.00198246
0.00198125
0.00197969
0.00197777
0.00197551
0.00197292
0.00196998
0.00196670
0.00196306
0.00195908
0.00195474
0.00195007
0.00194505
0.00193971
0.00193401
0.00192797
0.00192158
0.00191488
0.00190786
0.00190056
0.00189298
0.00188512
0.00187695
0.00186846
0.00185962
0.00185042
0.00184088
0.00183100
0.00182076
0.00181017
0.00179925
0.00178801
0.00177646
0.00176463
0.00175249
0.00174006
0.00172732
0.00171426
0.00170088
0.00168715
0.00167311
0.00165876
0.00164416
0.00162930
0.00161422
0.00159893
0.00158346
0.00156787
0.00155221
0.00153652
0.00152080
0.00150507
0.00148933
0.00147357
0.00145779
0.00144200
0.00142619
0.00141039
0.00139457
0.00137873
0.00136284
0.00134689
0.00133084
0.00131470
0.00129845
0.00128207
0.00126554
0.00124883
0.00123195
0.00121491
0.00119773
0.00118041
0.00116298
0.00114546
0.00112789
0.00111031
0.00109275
0.00107520
0.00105765
0.00104007
0.00102240
0.00100462
0.00098672
0.00096873
0.00095063
0.00093243
0.00091410
0.00089564
0.00087705
0.00085833
0.00083948
0.00082052
0.00080144
0.00078226
0.00076294
0.00074347
0.00072380
0.00070391
0.00068377
0.00066338
0.00064272
0.00062180
0.00060060
0.00057912
0.00055739
0.00053542
0.00051325
0.00049088
0.00046834
0.00044563
0.00042274
0.00039967
0.00037641
0.00035299
0.00032945
0.00030580
0.00028204
0.00025819
0.00023426
0.00021024
0.00018615
0.00016198
0.00013771
0.00011334
0.00008885
0.00006425
0.00003954
0.00001475
-0.00001012
-0.00003508
-0.00006017
-0.00008542
-0.00011087
-0.00013651
-0.00016235
-0.00018840
-0.00021463
-0.00024101
-0.00026753
-0.00029421
-0.00032106
-0.00034810
-0.00037532
-0.00040273
-0.00043034
-0.00045817
-0.00048626
-0.00051466
-0.00054341
-0.00057252
-0.00060200
-0.00063182
-0.00066198
-0.00069245
-0.00072321
-0.00075425
-0.00078554
-0.00081709
-0.00084888
-0.00088089
-0.00091310
-0.00094550
-0.00097807
-0.00101081
-0.00104370
-0.00107674
-0.00110993
-0.00114325
-0.00117671
-0.00121031
-0.00124404
-0.00127787
-0.00131179
-0.00134576
-0.00137976
-0.00141373
-0.00144766
-0.00148152
-0.00151528
-0.00154891
-0.00158238
-0.00161566
-0.00164874
-0.00168160
-0.00171421
-0.00174656
-0.00177860
-0.00181030
-0.00184164
-0.00187261
-0.00190319
-0.00193339
-0.00196318
-0.00199257
-0.00202153
-0.00205007
-0.00207819
-0.00210592
-0.00213325
-0.00216019
-0.00218674
-0.00221288
-0.00223860
-0.00226388
-0.00228870
-0.00231304
-0.00233687
-0.00236015
-0.00238286
-0.00240494
-0.00242636
-0.00244709
-0.00246711
-0.00248641
-0.00250498
-0.00252280
-0.00253985
-0.00255611
-0.00257155
-0.00258617
-0.00259995
-0.00261288
-0.00262495
-0.00263614
-0.00264644
-0.00265586
-0.00266440
-0.00267206
-0.00267887
-0.00268486
-0.00269006
-0.00269448
-0.00269815
-0.00270106
-0.00270323
-0.00270466
-0.00270538
-0.00270542
-0.00270483
-0.00270365
-0.00270190
-0.00269962
-0.00269679
-0.00269340
-0.00268946
-0.00268495
-0.00267991
-0.00267436
-0.00266833
-0.00266181
-0.00265478
-0.00264723
-0.00263913
-0.00263050
-0.00262133
-0.00261162
-0.00260140
-0.00259065
-0.00257937
-0.00256757
-0.00255524
-0.00254239
-0.00252904
-0.00251519
-0.00250086
-0.00248605
-0.00247080
-0.00245514
-0.00243908
-0.00242263
-0.00240575
-0.00238842
-0.00237063
-0.00235235
-0.00233358
-0.00231432
-0.00229457
-0.00227432
-0.00225357
-0.00223231
-0.00221051
-0.00218819
-0.00216534
-0.00214194
-0.00211799
-0.00209351
-0.00206851
-0.00204300
-0.00201697
-0.00199043
-0.00196339
-0.00193584
-0.00190780
-0.00187926
-0.00185022
-0.00182072
-0.00179078
-0.00176043
-0.00172972
-0.00169866
-0.00166726
-0.00163555
-0.00160353
-0.00157121
-0.00153859
-0.00150570
-0.00147255
-0.00143915
-0.00140550
-0.00137157
-0.00133735
-0.00130284
-0.00126804
-0.00123301
-0.00119779
-0.00116241
-0.00112687
-0.00109120
-0.00105543
-0.00101958
-0.00098368
-0.00094774
-0.00091178
-0.00087584
-0.00083994
-0.00080410
-0.00076837
-0.00073275
-0.00069727
-0.00066200
-0.00062698
-0.00059226
-0.00055786
-0.00052380
-0.00049009
-0.00045678
-0.00042388
-0.00039144
-0.00035948
-0.00032804
-0.00029711
-0.00026671
-0.00023683
-0.00020746
-0.00017865
-0.00015042
-0.00012278
-0.00009573
-0.00006928
-0.00004345
-0.00001824
0.00000634
0.00003030
0.00005365
0.00007639
0.00009853
0.00012009
0.00014108
0.00016151
0.00018136
0.00020064
0.00021935
0.00023746
0.00025496
0.00027182
0.00028801
0.00030351
0.00031831
0.00033241
0.00034579
0.00035846
0.00037039
0.00038157
0.00039193
0.00040146
0.00041017
0.00041807
0.00042518
0.00043149
0.00043695
0.00044153
0.00044517
0.00044785
0.00044956
0.00045032
0.00045018
0.00044914
0.00044724
0.00044450
0.00044093
0.00043655
0.00043138
0.00042545
0.00041877
0.00041136
0.00040324
0.00039438
0.00038480
0.00037449
0.00036344
0.00035166
0.00033913
0.00032586
0.00031187
0.00029720
0.00028190
0.00026599
0.00024950
0.00023244
0.00021483
0.00019671
0.00017813
0.00015914
0.00013980
0.00012017
0.00010030
0.00008022
0.00005998
0.00003963
0.00001920
-0.00000127
-0.00002176
-0.00004226
-0.00006277
-0.00008329
-0.00010381
-0.00012434
-0.00014485
-0.00016534
-0.00018582
-0.00020627
-0.00022671
-0.00024712
-0.00026747
-0.00028778
-0.00030802
-0.00032819
-0.00034825
-0.00036818
-0.00038793
-0.00040745
-0.00042670
-0.00044562
-0.00046420
-0.00048241
-0.00050020
-0.00051751
-0.00053426
-0.00055038
-0.00056583
-0.00058059
-0.00059464
-0.00060796
-0.00062054
-0.00063236
-0.00064342
-0.00065371
-0.00066326
-0.00067207
-0.00068015
-0.00068750
-0.00069413
-0.00070003
-0.00070518
-0.00070958
-0.00071324
-0.00071616
-0.00071836
-0.00071985
-0.00072063
-0.00072070
-0.00072006
-0.00071869
-0.00071655
-0.00071364
-0.00070992
-0.00070540
-0.00070006
-0.00069390
-0.00068697
-0.00067928
-0.00067090
-0.00066183
-0.00065206
-0.00064160
-0.00063044
-0.00061861
-0.00060613
-0.00059300
-0.00057924
-0.00056486
-0.00054988
-0.00053434
-0.00051827
-0.00050171
-0.00048470
-0.00046724
-0.00044936
-0.00043111
-0.00041252
-0.00039364
-0.00037450
-0.00035512
-0.00033554
-0.00031579
-0.00029587
-0.00027583
-0.00025569
-0.00023547
-0.00021517
-0.00019482
-0.00017443
-0.00015403
-0.00013367
-0.00011340
-0.00009329
-0.00007338
-0.00005368
-0.00003422
-0.00001500
0.00000396
0.00002266
0.00004112
0.00005934
0.00007732
0.00009510
0.00011268
0.00013005
0.00014721
0.00016417
0.00018092
0.00019747
0.00021382
0.00022995
0.00024588
0.00026158
0.00027705
0.00029227
0.00030724
0.00032197
0.00033645
0.00035067
0.00036461
0.00037828
0.00039165
0.00040473
0.00041751
0.00043004
0.00044232
0.00045439
0.00046626
0.00047792
0.00048936
0.00050058
0.00051155
0.00052226
0.00053269
0.00054283
0.00055264
0.00056208
0.00057114
0.00057981
0.00058806
0.00059590
0.00060331
0.00061031
0.00061688
0.00062305
0.00062882
0.00063421
0.00063921
0.00064378
0.00064791
0.00065159
0.00065479
0.00065751
0.00065975
0.00066154
0.00066289
0.00066379
0.00066422
0.00066416
0.00066359
0.00066253
0.00066100
0.00065900
0.00065655
0.00065367
0.00065037
0.00064668
0.00064260
0.00063815
0.00063329
0.00062804
0.00062239
0.00061634
0.00060988
0.00060297
0.00059558
0.00058767
0.00057919
0.00057012
0.00056046
0.00055020
0.00053936
0.00052796
0.00051601
0.00050351
0.00049050
0.00047699
0.00046299
0.00044853
0.00043363
0.00041832
0.00040265
0.00038664
0.00037031
0.00035370
0.00033683
0.00031972
0.00030238
0.00028483
0.00026707
0.00024912
0.00023102
0.00021279
0.00019445
0.00017605
0.00015761
0.00013914
0.00012064
0.00010209
0.00008347
0.00006478
0.00004600
0.00002714
0.00000819
-0.00001088
-0.00003009
-0.00004944
-0.00006892
-0.00008852
-0.00010823
-0.00012802
-0.00014790
-0.00016786
-0.00018793
-0.00020812
-0.00022842
-0.00024886
-0.00026940
-0.00029004
-0.00031075
-0.00033151
-0.00035232
-0.00037317
-0.00039407
-0.00041502
-0.00043599
-0.00045697
-0.00047793
-0.00049886
-0.00051977
-0.00054068
-0.00056160
-0.00058254
-0.00060354
-0.00062459
-0.00064573
-0.00066694
-0.00068822
-0.00070956
-0.00073092
-0.00075228
-0.00077358
-0.00079481
-0.00081590
-0.00083684
-0.00085760
-0.00087819
-0.00089861
-0.00091888
-0.00093896
-0.00095883
-0.00097846
-0.00099782
-0.00101690
-0.00103569
-0.00105417
-0.00107233
-0.00109014
-0.00110759
-0.00112466
-0.00114135
-0.00115765
-0.00117353
-0.00118902
-0.00120412
-0.00121885
-0.00123324
-0.00124729
-0.00126103
-0.00127446
-0.00128759
-0.00130043
-0.00131298
-0.00132524
-0.00133720
-0.00134887
-0.00136023
-0.00137129
-0.00138207
-0.00139259
-0.00140287
-0.00141292
-0.00142276
-0.00143237
-0.00144174
-0.00145085
-0.00145970
-0.00146826
-0.00147653
-0.00148451
-0.00149221
-0.00149962
-0.00150675
-0.00151358
-0.00152013
-0.00152643
-0.00153248
-0.00153831
-0.00154391
-0.00154930
-0.00155450
-0.00155953
-0.00156441
-0.00156915
-0.00157375
-0.00157822
-0.00158254
-0.00158670
-0.00159069
-0.00159452
-0.00159819
-0.00160167
-0.00160497
-0.00160813
-0.00161116
-0.00161410
-0.00161697
-0.00161974
-0.00162241
-0.00162495
-0.00162737
-0.00162966
-0.00163181
-0.00163379
-0.00163557
-0.00163711
-0.00163841
-0.00163943
-0.00164018
-0.00164068
-0.00164093
-0.00164092
-0.00164066
-0.00164015
-0.00163942
-0.00163849
-0.00163736
-0.00163605
-0.00163454
-0.00163286
-0.00163101
-0.00162903
-0.00162691
-0.00162466
-0.00162225
-0.00161969
-0.00161698
-0.00161413
-0.00161115
-0.00160805
-0.00160485
-0.00160156
-0.00159818
-0.00159469
-0.00159107
-0.00158731
-0.00158340
-0.00157930
-0.00157501
-0.00157050
-0.00156577
-0.00156084
-0.00155572
-0.00155044
-0.00154502
-0.00153950
-0.00153390
-0.00152827
-0.00152260
-0.00151693
-0.00151126
-0.00150561
-0.00149999
-0.00149439
-0.00148877
-0.00148310
-0.00147737
-0.00147155
-0.00146561
-0.00145952
-0.00145327
-0.00144681
-0.00144012
-0.00143315
-0.00142587
-0.00141825
-0.00141026
-0.00140187
-0.00139304
-0.00138375
-0.00137396
-0.00136362
-0.00135265
-0.00134101
-0.00132862
-0.00131547
-0.00130155
-0.00128685
-0.00127138
-0.00125514
-0.00123815
-0.00122043
-0.00120199
-0.00118288
-0.00116311
-0.00114272
-0.00112171
-0.00110011
-0.00107793
-0.00105522
-0.00103198
-0.00100826
-0.00098407
-0.00095943
-0.00093438
-0.00090895
-0.00088315
-0.00085699
-0.00083048
-0.00080361
-0.00077639
-0.00074884
-0.00072094
-0.00069268
-0.00066405
-0.00063506
-0.00060571
-0.00057601
-0.00054599
-0.00051568
-0.00048510
-0.00045428
-0.00042323
-0.00039197
-0.00036052
-0.00032889
-0.00029708
-0.00026508
-0.00023286
-0.00020044
-0.00016781
-0.00013498
-0.00010193
-0.00006863
-0.00003507
-0.00000121
0.00003293
0.00006737
0.00010210
0.00013712
0.00017243
0.00020801
0.00024389
0.00028004
0.00031649
0.00035324
0.00039029
0.00042765
0.00046531
0.00050326
0.00054149
0.00057999
0.00061872
0.00065768
0.00069681
0.00073608
0.00077545
0.00081490
0.00085439
0.00089390
0.00093340
0.00097283
0.00101216
0.00105137
0.00109046
0.00112942
0.00116826
0.00120697
0.00124551
0.00128384
0.00132193
0.00135972
0.00139717
0.00143425
0.00147096
0.00150730
0.00154326
0.00157886
0.00161409
0.00164894
0.00168342
0.00171753
0.00175126
0.00178461
0.00181759
0.00185017
0.00188232
0.00191400
0.00194513
0.00197568
0.00200561
0.00203491
0.00206356
0.00209153
0.00211879
0.00214532
0.00217109
0.00219609
0.00222031
0.00224376
0.00226645
0.00228838
0.00230954
0.00232992
0.00234952
0.00236831
0.00238631
0.00240353
0.00241998
0.00243568
0.00245064
0.00246486
0.00247835
0.00249113
0.00250322
0.00251467
0.00252548
0.00253568
0.00254526
0.00255423
0.00256257
0.00257028
0.00257738
0.00258388
0.00258977
0.00259507
0.00259977
0.00260384
0.00260725
0.00260997
0.00261199
0.00261331
0.00261396
0.00261395
0.00261333
0.00261208
0.00261020
0.00260767
0.00260453
0.00260079
0.00259647
0.00259161
0.00258625
0.00258045
0.00257422
0.00256758
0.00256055
0.00255312
0.00254530
0.00253705
0.00252837
0.00251926
0.00250971
0.00249973
0.00248928
0.00247835
0.00246690
0.00245494
0.00244248
0.00242952
0.00241607
0.00240217
0.00238783
0.00237311
0.00235803
0.00234265
0.00232702
0.00231119
0.00229522
0.00227919
0.00226317
0.00224722
0.00223136
0.00221560
0.00219994
0.00218435
0.00216884
0.00215341
0.00213806
0.00212282
0.00210768
0.00209265
0.00207774
0.00206295
0.00204830
0.00203379
0.00201943
0.00200524
0.00199121
0.00197733
0.00196360
0.00194998
0.00193648
0.00192306
0.00190971
0.00189641
0.00188316
0.00186998
0.00185689
0.00184390
0.00183100
0.00181818
0.00180545
0.00179279
0.00178023
0.00176777
0.00175545
0.00174327
0.00173122
0.00171933
0.00170761
0.00169607
0.00168473
0.00167359
0.00166262
0.00165181
0.00164113
0.00163058
0.00162016
0.00160986
0.00159967
0.00158959
0.00157962
0.00156975
0.00155995
0.00155021
0.00154052
0.00153086
0.00152119
0.00151147
0.00150165
0.00149169
0.00148155
0.00147121
0.00146063
0.00144979
0.00143867
0.00142727
0.00141562
0.00140375
0.00139169
0.00137947
0.00136711
0.00135462
0.00134202
0.00132932
0.00131654
0.00130372
0.00129088
0.00127802
0.00126513
0.00125221
0.00123922
0.00122616
0.00121302
0.00119978
0.00118644
0.00117299
0.00115944
0.00114579
0.00113204
0.00111819
0.00110424
0.00109017
0.00107598
0.00106169
0.00104731
0.00103288
0.00101841
0.00100391
0.00098939
0.00097484
0.00096023
0.00094557
0.00093086
0.00091614
0.00090142
0.00088670
0.00087197
0.00085723
0.00084248
0.00082772
0.00081296
0.00079821
0.00078345
0.00076869
0.00075390
0.00073905
0.00072409
0.00070899
0.00069371
0.00067826
0.00066260
0.00064672
0.00063058
0.00061417
0.00059744
0.00058038
0.00056296
0.00054517
0.00052699
0.00050842
0.00048947
0.00047018
0.00045056
0.00043066
0.00041050
0.00039010
0.00036947
0.00034860
0.00032751
0.00030621
0.00028469
0.00026299
0.00024111
0.00021908
0.00019689
0.00017451
0.00015191
0.00012908
0.00010597
0.00008257
0.00005884
0.00003478
0.00001036
-0.00001441
-0.00003950
-0.00006490
-0.00009057
-0.00011651
-0.00014268
-0.00016908
-0.00019570
-0.00022253
-0.00024958
-0.00027684
-0.00030432
-0.00033198
-0.00035980
-0.00038773
-0.00041576
-0.00044384
-0.00047194
-0.00050001
-0.00052802
-0.00055593
-0.00058372
-0.00061136
-0.00063887
-0.00066624
-0.00069347
-0.00072057
-0.00074751
-0.00077428
-0.00080087
-0.00082730
-0.00085357
-0.00087974
-0.00090581
-0.00093180
-0.00095773
-0.00098361
-0.00100947
-0.00103531
-0.00106111
-0.00108688
-0.00111258
-0.00113822
-0.00116379
-0.00118926
-0.00121458
-0.00123974
-0.00126470
-0.00128943
-0.00131391
-0.00133810
-0.00136198
-0.00138551
-0.00140867
-0.00143144
-0.00145380
-0.00147575
-0.00149730
-0.00151845
-0.00153921
-0.00155957
-0.00157953
-0.00159910
-0.00161827
-0.00163707
-0.00165553
-0.00167367
-0.00169148
-0.00170896
-0.00172609
-0.00174286
-0.00175927
-0.00177533
-0.00179106
-0.00180643
-0.00182143
-0.00183604
-0.00185024
-0.00186402
-0.00187742
-0.00189047
-0.00190320
-0.00191564
-0.00192778
-0.00193963
-0.00195119
-0.00196247
-0.00197346
-0.00198419
-0.00199466
-0.00200489
-0.00201492
-0.00202475
-0.00203443
-0.00204398
-0.00205341
-0.00206278
-0.00207212
-0.00208144
-0.00209079
-0.00210018
-0.00210964
-0.00211918
-0.00212883
-0.00213859
-0.00214847
-0.00215846
-0.00216853
-0.00217868
-0.00218892
-0.00219926
-0.00220972
-0.00222029
-0.00223095
-0.00224169
-0.00225247
-0.00226330
-0.00227418
-0.00228510
-0.00229606
-0.00230708
-0.00231813
-0.00232920
-0.00234029
-0.00235142
-0.00236260
-0.00237386
-0.00238518
-0.00239659
-0.00240807
-0.00241961
-0.00243119
-0.00244280
-0.00245444
-0.00246610
-0.00247779
-0.00248948
-0.00250119
-0.00251291
-0.00252465
-0.00253638
-0.00254810
-0.00255980
-0.00257147
-0.00258312
-0.00259477
-0.00260644
-0.00261816
-0.00262996
-0.00264183
-0.00265375
-0.00266570
-0.00267766
-0.00268959
-0.00270147
-0.00271326
-0.00272493
-0.00273647
-0.00274788
-0.00275915
-0.00277031
-0.00278135
-0.00279227
-0.00280307
-0.00281372
-0.00282424
-0.00283463
-0.00284489
-0.00285501
-0.00286496
-0.00287471
-0.00288422
-0.00289348
-0.00290250
-0.00291128
-0.00291980
-0.00292804
-0.00293596
-0.00294360
-0.00295094
-0.00295800
-0.00296474
-0.00297117
-0.00297726
-0.00298300
-0.00298834
-0.00299327
-0.00299775
-0.00300175
-0.00300525
-0.00300823
-0.00301066
-0.00301251
-0.00301375
-0.00301432
-0.00301421
-0.00301337
-0.00301182
-0.00300955
-0.00300660
-0.00300298
-0.00299870
-0.00299377
-0.00298820
-0.00298198
-0.00297510
-0.00296754
-0.00295926
-0.00295022
-0.00294041
-0.00292979
-0.00291836
-0.00290613
-0.00289310
-0.00287929
-0.00286468
-0.00284926
-0.00283302
-0.00281597
-0.00279810
-0.00277940
-0.00275988
-0.00273953
-0.00271836
-0.00269638
-0.00267360
-0.00265006
-0.00262579
-0.00260083
-0.00257521
-0.00254895
-0.00252210
-0.00249466
-0.00246667
-0.00243814
-0.00240909
-0.00237956
-0.00234960
-0.00231926
-0.00228858
-0.00225757
-0.00222623
-0.00219458
-0.00216261
-0.00213032
-0.00209770
-0.00206473
-0.00203141
-0.00199773
-0.00196369
-0.00192930
-0.00189456
-0.00185950
-0.00182409
-0.00178836
-0.00175228
-0.00171588
-0.00167914
-0.00164207
-0.00160468
-0.00156698
-0.00152897
-0.00149068
-0.00145212
-0.00141333
-0.00137434
-0.00133516
-0.00129585
-0.00125644
-0.00121698
-0.00117750
-0.00113800
-0.00109849
-0.00105897
-0.00101945
-0.00097992
-0.00094040
-0.00090088
-0.00086135
-0.00082182
-0.00078232
-0.00074284
-0.00070336
-0.00066388
-0.00062438
-0.00058486
-0.00054532
-0.00050577
-0.00046623
-0.00042668
-0.00038714
-0.00034760
-0.00030807
-0.00026855
-0.00022906
-0.00018963
-0.00015031
-0.00011115
-0.00007221
-0.00003355
0.00000480
0.00004280
0.00008041
0.00011760
0.00015433
0.00019057
0.00022629
0.00026147
0.00029608
0.00033009
0.00036349
0.00039627
0.00042843
0.00045998
0.00049096
0.00052139
0.00055129
0.00058065
0.00060946
0.00063774
0.00066547
0.00069265
0.00071930
0.00074538
0.00077089
0.00079580
0.00082010
0.00084377
0.00086681
0.00088918
0.00091088
0.00093190
0.00095223
0.00097188
0.00099084
0.00100908
0.00102662
0.00104346
0.00105960
0.00107502
0.00108972
0.00110370
0.00111697
0.00112957
0.00114152
0.00115281
0.00116344
0.00117341
0.00118271
0.00119138
0.00119945
0.00120694
0.00121389
0.00122031
0.00122622
0.00123166
0.00123662
0.00124112
0.00124516
0.00124877
0.00125199
0.00125486
0.00125743
0.00125968
0.00126162
0.00126321
0.00126445
0.00126533
0.00126583
0.00126593
0.00126561
0.00126487
0.00126371
0.00126218
0.00126033
0.00125821
0.00125584
0.00125324
0.00125042
0.00124740
0.00124417
0.00124072
0.00123706
0.00123320
0.00122918
0.00122504
0.00122078
0.00121644
0.00121202
0.00120754
0.00120304
0.00119853
0.00119402
0.00118953
0.00118505
0.00118059
0.00117611
0.00117158
0.00116697
0.00116224
0.00115740
0.00115245
0.00114739
0.00114220
0.00113686
0.00113137
0.00112573
0.00111994
0.00111401
0.00110795
0.00110175
0.00109541
0.00108892
0.00108223
0.00107533
0.00106823
0.00106094
0.00105348
0.00104584
0.00103803
0.00103005
0.00102191
0.00101362
0.00100520
0.00099666
0.00098800
0.00097920
0.00097026
0.00096115
0.00095184
0.00094233
0.00093262
0.00092269
0.00091254
0.00090213
0.00089145
0.00088047
0.00086919
0.00085765
0.00084586
0.00083387
0.00082170
0.00080939
0.00079699
0.00078453
0.00077206
0.00075964
0.00074729
0.00073505
0.00072292
0.00071095
0.00069915
0.00068754
0.00067615
0.00066500
0.00065412
0.00064349
0.00063312
0.00062300
0.00061316
0.00060362
0.00059439
0.00058548
0.00057687
0.00056855
0.00056052
0.00055277
0.00054530
0.00053809
0.00053114
0.00052447
0.00051812
0.00051209
0.00050643
0.00050114
0.00049624
0.00049172
0.00048755
0.00048377
0.00048040
0.00047750
0.00047511
0.00047324
0.00047190
0.00047109
0.00047083
0.00047114
0.00047203
0.00047348
0.00047548
0.00047800
0.00048102
0.00048456
0.00048861
0.00049320
0.00049831
0.00050392
0.00051001
0.00051654
0.00052348
0.00053082
0.00053853
0.00054660
0.00055499
0.00056366
0.00057256
0.00058164
0.00059087
0.00060022
0.00060968
0.00061924
0.00062888
0.00063858
0.00064832
0.00065806
0.00066781
0.00067757
0.00068731
0.00069705
0.00070676
0.00071646
0.00072613
0.00073574
0.00074525
0.00075464
0.00076387
0.00077292
0.00078179
0.00079044
0.00079889
0.00080710
0.00081508
0.00082281
0.00083029
0.00083749
0.00084442
0.00085104
0.00085735
0.00086333
0.00086898
0.00087430
0.00087929
0.00088394
0.00088827
0.00089225
0.00089590
0.00089920
0.00090214
0.00090472
0.00090696
0.00090889
0.00091052
0.00091187
0.00091295
0.00091374
0.00091424
0.00091446
0.00091438
0.00091401
0.00091333
0.00091236
0.00091107
0.00090948
0.00090754
0.00090524
0.00090257
0.00089950
0.00089601
0.00089209
0.00088771
0.00088285
0.00087752
0.00087171
0.00086545
0.00085876
0.00085168
0.00084420
0.00083634
0.00082811
0.00081952
0.00081061
0.00080141
0.00079193
0.00078217
0.00077214
0.00076181
0.00075120
0.00074032
0.00072916
0.00071772
0.00070598
0.00069392
0.00068152
0.00066880
0.00065576
0.00064241
0.00062875
0.00061479
0.00060053
0.00058595
0.00057105
0.00055584
0.00054029
0.00052439
0.00050814
0.00049154
0.00047457
0.00045727
0.00043962
0.00042164
0.00040335
0.00038474
0.00036584
0.00034664
0.00032713
0.00030731
0.00028715
0.00026665
0.00024580
0.00022461
0.00020310
0.00018129
0.00015917
0.00013673
0.00011395
0.00009080
0.00006728
0.00004339
0.00001914
-0.00000546
-0.00003044
-0.00005581
-0.00008159
-0.00010778
-0.00013435
-0.00016132
-0.00018867
-0.00021639
-0.00024449
-0.00027294
-0.00030174
-0.00033088
-0.00036034
-0.00039013
-0.00042021
-0.00045056
-0.00048113
-0.00051188
-0.00054276
-0.00057374
-0.00060481
-0.00063592
-0.00066705
-0.00069817
-0.00072924
-0.00076021
-0.00079104
-0.00082166
-0.00085202
-0.00088209
-0.00091184
-0.00094124
-0.00097030
-0.00099902
-0.00102740
-0.00105542
-0.00108309
-0.00111038
-0.00113728
-0.00116378
-0.00118985
-0.00121546
-0.00124059
-0.00126522
-0.00128934
-0.00131295
-0.00133605
-0.00135859
-0.00138056
-0.00140190
-0.00142258
-0.00144250
-0.00146162
-0.00147988
-0.00149726
-0.00151370
-0.00152917
-0.00154368
-0.00155720
-0.00156974
-0.00158129
-0.00159183
-0.00160137
-0.00160994
-0.00161753
-0.00162414
-0.00162979
-0.00163445
-0.00163814
-0.00164085
-0.00164259
-0.00164335
-0.00164314
-0.00164197
-0.00163983
-0.00163675
-0.00163274
-0.00162781
-0.00162201
-0.00161533
-0.00160779
-0.00159939
-0.00159010
-0.00157990
-0.00156871
-0.00155650
-0.00154322
-0.00152887
-0.00151347
-0.00149703
-0.00147955
-0.00146103
-0.00144145
-0.00142083
-0.00139916
-0.00137643
-0.00135267
-0.00132791
-0.00130216
-0.00127546
-0.00124782
-0.00121926
-0.00118978
-0.00115944
-0.00112828
-0.00109635
-0.00106368
-0.00103030
-0.00099622
-0.00096143
-0.00092595
-0.00088981
-0.00085302
-0.00081560
-0.00077758
-0.00073895
-0.00069974
-0.00065997
-0.00061965
-0.00057880
-0.00053744
-0.00049557
-0.00045320
-0.00041037
-0.00036709
-0.00032337
-0.00027922
-0.00023469
-0.00018979
-0.00014459
-0.00009912
-0.00005344
-0.00000756
0.00003847
0.00008459
0.00013076
0.00017690
0.00022296
0.00026889
0.00031467
0.00036025
0.00040562
0.00045078
0.00049573
0.00054048
0.00058504
0.00062941
0.00067360
0.00071762
0.00076145
0.00080505
0.00084837
0.00089135
0.00093399
0.00097626
0.00101818
0.00105971
0.00110087
0.00114165
0.00118207
0.00122213
0.00126184
0.00130119
0.00134020
0.00137887
0.00141719
0.00145514
0.00149271
0.00152987
0.00156662
0.00160292
0.00163876
0.00167410
0.00170892
0.00174322
0.00177700
0.00181023
0.00184287
0.00187488
0.00190626
0.00193701
0.00196715
0.00199666
0.00202555
0.00205378
0.00208132
0.00210814
0.00213426
0.00215967
0.00218436
0.00220834
0.00223156
0.00225404
0.00227575
0.00229669
0.00231684
0.00233618
0.00235471
0.00237243
0.00238931
0.00240536
0.00242058
0.00243496
0.00244852
0.00246127
0.00247322
0.00248438
0.00249482
0.00250456
0.00251364
0.00252208
0.00252986
0.00253698
0.00254343
0.00254923
0.00255437
0.00255885
0.00256264
0.00256573
0.00256810
0.00256976
0.00257071
0.00257096
0.00257055
0.00256949
0.00256779
0.00256545
0.00256247
0.00255883
0.00255456
0.00254965
0.00254412
0.00253798
0.00253121
0.00252379
0.00251571
0.00250696
0.00249755
0.00248748
0.00247676
0.00246539
0.00245341
0.00244083
0.00242766
0.00241392
0.00239963
0.00238485
0.00236961
0.00235396
0.00233791
0.00232154
0.00230490
0.00228806
0.00227107
0.00225394
0.00223671
0.00221939
0.00220200
0.00218454
0.00216703
0.00214952
0.00213200
0.00211448
0.00209697
0.00207948
0.00206201
0.00204456
0.00202714
0.00200972
0.00199231
0.00197488
0.00195746
0.00194005
0.00192266
0.00190530
0.00188796
0.00187063
0.00185333
0.00183606
0.00181884
0.00180170
0.00178465
0.00176771
0.00175090
0.00173421
0.00171761
0.00170108
0.00168462
0.00166824
0.00165197
0.00163584
0.00161987
0.00160406
0.00158842
0.00157291
0.00155751
0.00154219
0.00152694
0.00151173
0.00149653
0.00148135
0.00146616
0.00145094
0.00143565
0.00142028
0.00140483
0.00138931
0.00137371
0.00135802
0.00134225
0.00132639
0.00131048
0.00129451
0.00127851
0.00126250
0.00124650
0.00123053
0.00121465
0.00119888
0.00118329
0.00116787
0.00115265
0.00113765
0.00112286
0.00110830
0.00109397
0.00107984
0.00106594
0.00105224
0.00103877
0.00102554
0.00101255
0.00099980
0.00098730
0.00097503
0.00096299
0.00095114
0.00093949
0.00092804
0.00091680
0.00090576
0.00089491
0.00088423
0.00087371
0.00086334
0.00085313
0.00084311
0.00083330
0.00082371
0.00081432
0.00080512
0.00079605
0.00078709
0.00077824
0.00076947
0.00076079
0.00075218
0.00074365
0.00073519
0.00072684
0.00071860
0.00071050
0.00070254
0.00069473
0.00068705
0.00067950
0.00067208
0.00066478
0.00065760
0.00065052
0.00064354
0.00063663
0.00062979
0.00062303
0.00061633
0.00060963
0.00060293
0.00059622
0.00058952
0.00058285
0.00057622
0.00056965
0.00056315
0.00055671
0.00055034
0.00054408
0.00053795
0.00053195
0.00052610
0.00052040
0.00051487
0.00050951
0.00050436
0.00049944
0.00049476
0.00049030
0.00048605
0.00048199
0.00047809
0.00047433
0.00047072
0.00046727
0.00046400
0.00046090
0.00045798
0.00045522
0.00045261
0.00045016
0.00044785
0.00044569
0.00044365
0.00044172
0.00043990
0.00043820
0.00043660
0.00043510
0.00043371
0.00043242
0.00043125
0.00043020
0.00042929
0.00042856
0.00042801
0.00042764
0.00042748
0.00042752
0.00042778
0.00042828
0.00042902
0.00043002
0.00043127
0.00043276
0.00043447
0.00043639
0.00043848
0.00044068
0.00044298
0.00044537
0.00044786
0.00045046
0.00045316
0.00045597
0.00045886
0.00046181
0.00046480
0.00046781
0.00047081
0.00047380
0.00047677
0.00047971
0.00048263
0.00048552
0.00048836
0.00049113
0.00049381
0.00049639
0.00049885
0.00050122
0.00050350
0.00050574
0.00050794
0.00051009
0.00051220
0.00051425
0.00051625
0.00051816
0.00051999
0.00052170
0.00052329
0.00052473
0.00052601
0.00052708
0.00052794
0.00052855
0.00052887
0.00052887
0.00052850
0.00052777
0.00052666
0.00052521
0.00052342
0.00052131
0.00051887
0.00051609
0.00051298
0.00050955
0.00050582
0.00050180
0.00049749
0.00049288
0.00048797
0.00048277
0.00047727
0.00047148
0.00046539
0.00045898
0.00045227
0.00044527
0.00043800
0.00043046
0.00042266
0.00041461
0.00040632
0.00039779
0.00038904
0.00038008
0.00037092
0.00036158
0.00035207
0.00034241
0.00033261
0.00032268
0.00031267
0.00030258
0.00029244
0.00028223
0.00027193
0.00026153
0.00025104
0.00024048
0.00022987
0.00021925
0.00020865
0.00019807
0.00018754
0.00017707
0.00016668
0.00015636
0.00014612
0.00013595
0.00012586
0.00011583
0.00010587
0.00009595
0.00008607
0.00007622
0.00006639
0.00005658
0.00004678
0.00003700
0.00002720
0.00001738
0.00000751
-0.00000242
-0.00001238
-0.00002234
-0.00003228
-0.00004215
-0.00005193
-0.00006158
-0.00007107
-0.00008041
-0.00008959
-0.00009862
-0.00010749
-0.00011619
-0.00012471
-0.00013306
-0.00014120
-0.00014912
-0.00015680
-0.00016420
-0.00017127
-0.00017800
-0.00018437
-0.00019037
-0.00019600
-0.00020129
-0.00020623
-0.00021083
-0.00021508
-0.00021897
-0.00022248
-0.00022558
-0.00022827
-0.00023053
-0.00023239
-0.00023385
-0.00023493
-0.00023561
-0.00023588
-0.00023574
-0.00023517
-0.00023414
-0.00023262
-0.00023051
-0.00022777
-0.00022435
-0.00022022
-0.00021536
-0.00020975
-0.00020337
-0.00019623
-0.00018831
-0.00017962
-0.00017014
-0.00015986
-0.00014877
-0.00013687
-0.00012417
-0.00011066
-0.00009638
-0.00008135
-0.00006560
-0.00004913
-0.00003196
-0.00001408
0.00000450
0.00002376
0.00004366
0.00006416
0.00008526
0.00010691
0.00012912
0.00015187
0.00017515
0.00019892
0.00022315
0.00024784
0.00027296
0.00029852
0.00032454
0.00035102
0.00037798
0.00040540
0.00043327
0.00046158
0.00049034
0.00051955
0.00054922
0.00057929
0.00060974
0.00064052
0.00067160
0.00070292
0.00073442
0.00076605
0.00079781
0.00082967
0.00086159
0.00089353
0.00092541
0.00095719
0.00098881
0.00102024
0.00105144
0.00108241
0.00111313
0.00114359
0.00117377
0.00120366
0.00123320
0.00126236
0.00129112
0.00131947
0.00134739
0.00137488
0.00140192
0.00142849
0.00145458
0.00148014
0.00150516
0.00152960
0.00155343
0.00157665
0.00159924
0.00162118
0.00164242
0.00166291
0.00168260
0.00170146
0.00171945
0.00173655
0.00175273
0.00176795
0.00178215
0.00179530
0.00180736
0.00181833
0.00182819
0.00183695
0.00184458
0.00185110
0.00185650
0.00186079
0.00186397
0.00186607
0.00186709
0.00186704
0.00186594
0.00186377
0.00186055
0.00185628
0.00185097
0.00184460
0.00183715
0.00182859
0.00181891
0.00180810
0.00179613
0.00178300
0.00176870
0.00175322
0.00173656
0.00171872
0.00169970
0.00167956
0.00165831
0.00163597
0.00161251
0.00158794
0.00156223
0.00153537
0.00150738
0.00147826
0.00144807
0.00141683
0.00138457
0.00135128
0.00131697
0.00128165
0.00124535
0.00120813
0.00117002
0.00113107
0.00109132
0.00105080
0.00100954
0.00096756
0.00092487
0.00088149
0.00083744
0.00079278
0.00074753
0.00070172
0.00065538
0.00060855
0.00056125
0.00051353
0.00046543
0.00041698
0.00036824
0.00031923
0.00027000
0.00022061
0.00017112
0.00012160
0.00007210
0.00002267
-0.00002664
-0.00007580
-0.00012472
-0.00017337
-0.00022170
-0.00026968
-0.00031727
-0.00036440
-0.00041103
-0.00045710
-0.00050259
-0.00054746
-0.00059167
-0.00063520
-0.00067803
-0.00072014
-0.00076153
-0.00080221
-0.00084218
-0.00088147
-0.00092006
-0.00095794
-0.00099507
-0.00103140
-0.00106689
-0.00110149
-0.00113516
-0.00116788
-0.00119963
-0.00123041
-0.00126020
-0.00128901
-0.00131682
-0.00134365
-0.00136949
-0.00139434
-0.00141820
-0.00144108
-0.00146298
-0.00148388
-0.00150378
-0.00152267
-0.00154052
-0.00155733
-0.00157309
-0.00158775
-0.00160131
-0.00161373
-0.00162503
-0.00163522
-0.00164431
-0.00165234
-0.00165933
-0.00166531
-0.00167027
-0.00167424
-0.00167722
-0.00167923
-0.00168030
-0.00168042
-0.00167957
-0.00167773
-0.00167484
-0.00167087
-0.00166578
-0.00165958
-0.00165228
-0.00164389
-0.00163442
-0.00162387
-0.00161226
-0.00159958
-0.00158582
-0.00157098
-0.00155502
-0.00153797
-0.00151982
-0.00150059
-0.00148030
-0.00145898
-0.00143666
-0.00141340
-0.00138923
-0.00136423
-0.00133844
-0.00131190
-0.00128468
-0.00125680
-0.00122830
-0.00119920
-0.00116953
-0.00113934
-0.00110867
-0.00107759
-0.00104616
-0.00101442
-0.00098238
-0.00095007
-0.00091749
-0.00088467
-0.00085163
-0.00081838
-0.00078496
-0.00075139
-0.00071772
-0.00068399
-0.00065023
-0.00061644
-0.00058261
-0.00054872
-0.00051478
-0.00048077
-0.00044674
-0.00041271
-0.00037872
-0.00034477
-0.00031088
-0.00027706
-0.00024333
-0.00020970
-0.00017620
-0.00014285
-0.00010966
-0.00007668
-0.00004391
-0.00001140
0.00002086
0.00005285
0.00008458
0.00011601
0.00014712
0.00017786
0.00020821
0.00023816
0.00026769
0.00029679
0.00032549
0.00035382
0.00038180
0.00040943
0.00043671
0.00046366
0.00049028
0.00051656
0.00054249
0.00056808
0.00059331
0.00061821
0.00064278
0.00066701
0.00069089
0.00071437
0.00073745
0.00076010
0.00078232
0.00080410
0.00082543
0.00084633
0.00086678
0.00088677
0.00090630
0.00092535
0.00094392
0.00096199
0.00097954
0.00099658
0.00101310
0.00102915
0.00104475
0.00105999
0.00107494
0.00108967
0.00110424
0.00111867
0.00113299
0.00114720
0.00116129
0.00117524
0.00118904
0.00120265
0.00121605
0.00122923
0.00124218
0.00125488
0.00126729
0.00127938
0.00129114
0.00130257
0.00131368
0.00132447
0.00133496
0.00134514
0.00135500
0.00136453
0.00137371
0.00138252
0.00139094
0.00139899
0.00140665
0.00141393
0.00142081
0.00142729
0.00143336
0.00143906
0.00144438
0.00144936
0.00145400
0.00145832
0.00146232
0.00146601
0.00146939
0.00147250
0.00147536
0.00147797
0.00148035
0.00148252
0.00148448
0.00148625
0.00148783
0.00148921
0.00149039
0.00149134
0.00149205
0.00149252
0.00149276
0.00149277
0.00149256
0.00149208
0.00149132
0.00149028
0.00148893
0.00148727
0.00148529
0.00148296
0.00148027
0.00147719
0.00147366
0.00146968
0.00146522
0.00146029
0.00145490
0.00144906
0.00144278
0.00143605
0.00142892
0.00142138
0.00141348
0.00140523
0.00139663
0.00138768
0.00137835
0.00136862
0.00135847
0.00134785
0.00133673
0.00132510
0.00131293
0.00130020
0.00128691
0.00127304
0.00125859
0.00124355
0.00122791
0.00121165
0.00119472
0.00117712
0.00115882
0.00113986
0.00112027
0.00110011
0.00107944
0.00105829
0.00103669
0.00101464
0.00099215
0.00096924
0.00094591
0.00092217
0.00089803
0.00087354
0.00084872
0.00082361
0.00079822
0.00077255
0.00074662
0.00072041
0.00069392
0.00066714
0.00064006
0.00061268
0.00058502
0.00055708
0.00052887
0.00050042
0.00047178
0.00044296
0.00041400
0.00038488
0.00035564
0.00032631
0.00029690
0.00026740
0.00023784
0.00020819
0.00017845
0.00014865
0.00011881
0.00008895
0.00005910
0.00002927
-0.00000054
-0.00003033
-0.00006007
-0.00008977
-0.00011942
-0.00014900
-0.00017851
-0.00020794
-0.00023729
-0.00026656
-0.00029580
-0.00032501
-0.00035420
-0.00038336
-0.00041251
-0.00044165
-0.00047079
-0.00049994
-0.00052905
-0.00055807
-0.00058695
-0.00061565
-0.00064413
-0.00067235
-0.00070027
-0.00072788
-0.00075518
-0.00078213
-0.00080870
-0.00083486
-0.00086057
-0.00088578
-0.00091048
-0.00093463
-0.00095821
-0.00098120
-0.00100358
-0.00102535
-0.00104652
-0.00106710
-0.00108711
-0.00110657
-0.00112549
-0.00114388
-0.00116177
-0.00117916
-0.00119607
-0.00121249
-0.00122843
-0.00124388
-0.00125883
-0.00127325
-0.00128712
-0.00130041
-0.00131309
-0.00132515
-0.00133658
-0.00134737
-0.00135754
-0.00136708
-0.00137599
-0.00138426
-0.00139189
-0.00139887
-0.00140520
-0.00141091
-0.00141599
-0.00142045
-0.00142431
-0.00142759
-0.00143032
-0.00143251
-0.00143418
-0.00143536
-0.00143605
-0.00143628
-0.00143605
-0.00143539
-0.00143428
-0.00143273
-0.00143073
-0.00142827
-0.00142535
-0.00142195
-0.00141806
-0.00141366
-0.00140874
-0.00140330
-0.00139733
-0.00139083
-0.00138380
-0.00137626
-0.00136821
-0.00135970
-0.00135077
-0.00134146
-0.00133177
-0.00132171
-0.00131127
-0.00130045
-0.00128926
-0.00127770
-0.00126575
-0.00125342
-0.00124069
-0.00122758
-0.00121411
-0.00120028
-0.00118612
-0.00117167
-0.00115700
-0.00114216
-0.00112719
-0.00111212
-0.00109697
-0.00108177
-0.00106657
-0.00105138
-0.00103622
-0.00102113
-0.00100609
-0.00099111
-0.00097618
-0.00096129
-0.00094645
-0.00093168
-0.00091698
-0.00090231
-0.00088766
-0.00087300
-0.00085835
-0.00084371
-0.00082913
-0.00081461
-0.00080018
-0.00078584
-0.00077158
-0.00075740
-0.00074330
-0.00072933
-0.00071550
-0.00070185
-0.00068838
-0.00067508
-0.00066195
-0.00064901
-0.00063629
-0.00062382
-0.00061165
-0.00059980
-0.00058832
-0.00057722
-0.00056651
-0.00055617
-0.00054620
-0.00053660
-0.00052737
-0.00051854
-0.00051013
-0.00050214
-0.00049456
-0.00048737
-0.00048057
-0.00047412
-0.00046802
-0.00046224
-0.00045678
-0.00045165
-0.00044684
-0.00044238
-0.00043828
-0.00043453
-0.00043112
-0.00042806
-0.00042535
-0.00042300
-0.00042102
-0.00041941
-0.00041815
-0.00041725
-0.00041673
-0.00041659
-0.00041683
-0.00041742
-0.00041835
-0.00041959
-0.00042113
-0.00042297
-0.00042511
-0.00042753
-0.00043023
-0.00043323
-0.00043653
-0.00044017
-0.00044418
-0.00044855
-0.00045327
-0.00045833
-0.00046369
-0.00046934
-0.00047526
-0.00048143
-0.00048785
-0.00049451
-0.00050139
-0.00050848
-0.00051577
-0.00052326
-0.00053095
-0.00053886
-0.00054701
-0.00055545
-0.00056418
-0.00057324
-0.00058261
-0.00059230
-0.00060233
-0.00061269
-0.00062339
-0.00063440
-0.00064571
-0.00065729
-0.00066912
-0.00068118
-0.00069345
-0.00070591
-0.00071851
-0.00073121
-0.00074396
-0.00075675
-0.00076955
-0.00078235
-0.00079513
-0.00080788
-0.00082060
-0.00083329
-0.00084591
-0.00085845
-0.00087088
-0.00088321
-0.00089543
-0.00090757
-0.00091963
-0.00093164
-0.00094360
-0.00095553
-0.00096741
-0.00097923
-0.00099099
-0.00100268
-0.00101431
-0.00102588
-0.00103738
-0.00104879
-0.00106009
-0.00107130
-0.00108239
-0.00109337
-0.00110422
-0.00111494
-0.00112554
-0.00113599
-0.00114625
-0.00115629
-0.00116607
-0.00117558
-0.00118479
-0.00119370
-0.00120231
-0.00121063
-0.00121868
-0.00122642
-0.00123386
-0.00124095
-0.00124769
-0.00125407
-0.00126011
-0.00126582
-0.00127122
-0.00127631
-0.00128110
-0.00128558
-0.00128976
-0.00129366
-0.00129730
-0.00130071
-0.00130390
-0.00130689
-0.00130967
-0.00131224
-0.00131458
-0.00131669
-0.00131858
-0.00132025
-0.00132169
-0.00132289
-0.00132384
-0.00132454
-0.00132498
-0.00132516
-0.00132506
-0.00132471
-0.00132410
-0.00132327
-0.00132223
-0.00132099
-0.00131956
-0.00131795
-0.00131619
-0.00131430
-0.00131229
-0.00131018
-0.00130798
-0.00130571
-0.00130338
-0.00130100
-0.00129856
-0.00129607
-0.00129351
-0.00129086
-0.00128810
-0.00128521
-0.00128215
-0.00127894
-0.00127557
-0.00127205
-0.00126837
-0.00126449
-0.00126040
-0.00125611
-0.00125162
-0.00124695
-0.00124209
-0.00123705
-0.00123183
-0.00122641
-0.00122077
-0.00121491
-0.00120881
-0.00120249
-0.00119597
-0.00118929
-0.00118247
-0.00117550
-0.00116837
-0.00116109
-0.00115365
-0.00114609
-0.00113840
-0.00113061
-0.00112270
-0.00111466
-0.00110648
-0.00109810
-0.00108952
-0.00108071
-0.00107168
-0.00106242
-0.00105291
-0.00104314
-0.00103306
-0.00102267
-0.00101198
-0.00100100
-0.00098975
-0.00097822
-0.00096644
-0.00095441
-0.00094214
-0.00092961
-0.00091684
-0.00090383
-0.00089061
-0.00087718
-0.00086359
-0.00084986
-0.00083601
-0.00082209
-0.00080810
-0.00079410
-0.00078011
-0.00076617
-0.00075232
-0.00073859
-0.00072499
-0.00071155
-0.00069826
-0.00068513
-0.00067215
-0.00065934
-0.00064670
-0.00063425
-0.00062203
-0.00061007
-0.00059842
-0.00058713
-0.00057620
-0.00056566
-0.00055551
-0.00054574
-0.00053635
-0.00052733
-0.00051867
-0.00051038
-0.00050247
-0.00049496
-0.00048787
-0.00048120
-0.00047499
-0.00046925
-0.00046401
-0.00045931
-0.00045516
-0.00045156
-0.00044852
-0.00044603
-0.00044411
-0.00044276
-0.00044200
-0.00044183
-0.00044229
-0.00044339
-0.00044513
-0.00044751
-0.00045053
-0.00045416
-0.00045838
-0.00046315
-0.00046843
-0.00047419
-0.00048040
-0.00048704
-0.00049408
-0.00050149
-0.00050925
-0.00051730
-0.00052561
-0.00053413
-0.00054283
-0.00055169
-0.00056072
-0.00056992
-0.00057929
-0.00058882
-0.00059852
-0.00060836
-0.00061838
-0.00062857
-0.00063896
-0.00064955
-0.00066035
-0.00067135
-0.00068255
-0.00069395
-0.00070552
-0.00071724
-0.00072910
-0.00074106
-0.00075308
-0.00076512
-0.00077711
-0.00078898
-0.00080070
-0.00081224
-0.00082356
-0.00083464
-0.00084543
-0.00085592
-0.00086609
-0.00087592
-0.00088538
-0.00089446
-0.00090313
-0.00091139
-0.00091923
-0.00092666
-0.00093372
-0.00094041
-0.00094674
-0.00095268
-0.00095825
-0.00096346
-0.00096831
-0.00097280
-0.00097696
-0.00098081
-0.00098436
-0.00098762
-0.00099059
-0.00099326
-0.00099561
-0.00099766
-0.00099942
-0.00100093
-0.00100221
-0.00100327
-0.00100410
-0.00100470
-0.00100505
-0.00100512
-0.00100491
-0.00100437
-0.00100349
-0.00100225
-0.00100065
-0.00099870
-0.00099641
-0.00099380
-0.00099088
-0.00098768
-0.00098426
-0.00098064
-0.00097684
-0.00097289
-0.00096878
-0.00096451
-0.00096010
-0.00095555
-0.00095084
-0.00094596
-0.00094086
-0.00093550
-0.00092985
-0.00092386
-0.00091751
-0.00091079
-0.00090369
-0.00089618
-0.00088825
-0.00087988
-0.00087106
-0.00086180
-0.00085211
-0.00084197
-0.00083138
-0.00082032
-0.00080875
-0.00079664
-0.00078399
-0.00077082
-0.00075713
-0.00074293
-0.00072824
-0.00071305
-0.00069737
-0.00068121
-0.00066458
-0.00064752
-0.00063005
-0.00061221
-0.00059402
-0.00057549
-0.00055662
-0.00053745
-0.00051799
-0.00049826
-0.00047827
-0.00045803
-0.00043754
-0.00041684
-0.00039594
-0.00037487
-0.00035367
-0.00033233
-0.00031087
-0.00028930
-0.00026760
-0.00024577
-0.00022383
-0.00020178
-0.00017966
-0.00015749
-0.00013531
-0.00011315
-0.00009106
-0.00006906
-0.00004718
-0.00002543
-0.00000382
0.00001764
0.00003895
0.00006007
0.00008098
0.00010166
0.00012211
0.00014231
0.00016223
0.00018187
0.00020123
0.00022029
0.00023905
0.00025751
0.00027564
0.00029341
0.00031077
0.00032770
0.00034420
0.00036027
0.00037592
0.00039113
0.00040590
0.00042022
0.00043409
0.00044752
0.00046050
0.00047303
0.00048509
0.00049666
0.00050770
0.00051817
0.00052801
0.00053718
0.00054564
0.00055335
0.00056030
0.00056648
0.00057190
0.00057657
0.00058049
0.00058370
0.00058619
0.00058799
0.00058910
0.00058954
0.00058932
0.00058844
0.00058696
0.00058490
0.00058231
0.00057919
0.00057556
0.00057143
0.00056682
0.00056175
0.00055623
0.00055026
0.00054383
0.00053692
0.00052953
0.00052166
0.00051334
0.00050459
0.00049539
0.00048575
0.00047564
0.00046503
0.00045389
0.00044219
0.00042990
0.00041700
0.00040347
0.00038930
0.00037450
0.00035910
0.00034313
0.00032661
0.00030959
0.00029208
0.00027414
0.00025579
0.00023706
0.00021800
0.00019862
0.00017892
0.00015891
0.00013859
0.00011797
0.00009707
0.00007589
0.00005444
0.00003275
0.00001083
-0.00001129
-0.00003360
-0.00005609
-0.00007877
-0.00010165
-0.00012471
-0.00014797
-0.00017143
-0.00019509
-0.00021893
-0.00024292
-0.00026705
-0.00029131
-0.00031570
-0.00034021
-0.00036484
-0.00038956
-0.00041438
-0.00043930
-0.00046433
-0.00048947
-0.00051468
-0.00053993
-0.00056516
-0.00059034
-0.00061543
-0.00064042
-0.00066526
-0.00068993
-0.00071439
-0.00073857
-0.00076242
-0.00078588
-0.00080893
-0.00083155
-0.00085371
-0.00087538
-0.00089655
-0.00091719
-0.00093725
-0.00095672
-0.00097558
-0.00099382
-0.00101141
-0.00102838
-0.00104473
-0.00106049
-0.00107567
-0.00109028
-0.00110432
-0.00111778
-0.00113065
-0.00114293
-0.00115463
-0.00116577
-0.00117636
-0.00118639
-0.00119581
-0.00120461
-0.00121278
-0.00122028
-0.00122710
-0.00123321
-0.00123860
-0.00124327
-0.00124718
-0.00125031
-0.00125267
-0.00125427
-0.00125514
-0.00125529
-0.00125475
-0.00125355
-0.00125169
-0.00124915
-0.00124596
-0.00124213
-0.00123767
-0.00123260
-0.00122688
-0.00122048
-0.00121339
-0.00120560
-0.00119714
-0.00118802
-0.00117827
-0.00116787
-0.00115683
-0.00114512
-0.00113269
-0.00111954
-0.00110565
-0.00109104
-0.00107571
-0.00105965
-0.00104286
-0.00102534
-0.00100707
-0.00098803
-0.00096819
-0.00094754
-0.00092609
-0.00090387
-0.00088093
-0.00085731
-0.00083304
-0.00080816
-0.00078270
-0.00075672
-0.00073027
-0.00070340
-0.00067615
-0.00064854
-0.00062061
-0.00059237
-0.00056386
-0.00053510
-0.00050611
-0.00047688
-0.00044740
-0.00041768
-0.00038772
-0.00035751
-0.00032704
-0.00029629
-0.00026528
-0.00023400
-0.00020249
-0.00017074
-0.00013874
-0.00010649
-0.00007397
-0.00004119
-0.00000816
0.00002508
0.00005849
0.00009202
0.00012564
0.00015930
0.00019299
0.00022665
0.00026026
0.00029374
0.00032704
0.00036010
0.00039286
0.00042530
0.00045740
0.00048913
0.00052046
0.00055136
0.00058181
0.00061180
0.00064132
0.00067036
0.00069892
0.00072701
0.00075463
0.00078178
0.00080846
0.00083467
0.00086040
0.00088564
0.00091038
0.00093460
0.00095830
0.00098148
0.00100411
0.00102617
0.00104765
0.00106852
0.00108874
0.00110829
0.00112717
0.00114534
0.00116279
0.00117952
0.00119552
0.00121080
0.00122537
0.00123923
0.00125238
0.00126483
0.00127656
0.00128759
0.00129792
0.00130756
0.00131651
0.00132481
0.00133247
0.00133951
0.00134594
0.00135176
0.00135700
0.00136168
0.00136581
0.00136940
0.00137246
0.00137497
0.00137692
0.00137828
0.00137904
0.00137920
0.00137877
0.00137774
0.00137608
0.00137381
0.00137091
0.00136738
0.00136322
0.00135844
0.00135303
0.00134698
0.00134024
0.00133281
0.00132470
0.00131592
0.00130652
0.00129655
0.00128600
0.00127489
0.00126318
0.00125087
0.00123797
0.00122448
0.00121039
0.00119572
0.00118045
0.00116461
0.00114820
0.00113122
0.00111369
0.00109562
0.00107702
0.00105788
0.00103819
0.00101795
0.00099714
0.00097577
0.00095384
0.00093133
0.00090823
0.00088453
0.00086020
0.00083524
0.00080964
0.00078344
0.00075663
0.00072922
0.00070120
0.00067257
0.00064333
0.00061351
0.00058307
0.00055201
0.00052032
0.00048800
0.00045504
0.00042147
0.00038730
0.00035257
0.00031733
0.00028163
0.00024549
0.00020893
0.00017196
0.00013457
0.00009678
0.00005860
0.00002004
-0.00001885
-0.00005807
-0.00009758
-0.00013738
-0.00017749
-0.00021792
-0.00025865
-0.00029967
-0.00034096
-0.00038247
-0.00042418
-0.00046605
-0.00050802
-0.00055005
-0.00059211
-0.00063419
-0.00067626
-0.00071829
-0.00076024
-0.00080206
-0.00084369
-0.00088510
-0.00092624
-0.00096705
-0.00100749
-0.00104754
-0.00108716
-0.00112634
-0.00116505
-0.00120328
-0.00124100
-0.00127821
-0.00131490
-0.00135108
-0.00138675
-0.00142195
-0.00145670
-0.00149100
-0.00152481
-0.00155812
-0.00159091
-0.00162317
-0.00165489
-0.00168608
-0.00171671
-0.00174679
-0.00177627
-0.00180514
-0.00183336
-0.00186089
-0.00188772
-0.00191383
-0.00193922
-0.00196390
-0.00198784
-0.00201103
-0.00203344
-0.00205505
-0.00207583
-0.00209575
-0.00211480
-0.00213297
-0.00215028
-0.00216670
-0.00218223
-0.00219687
-0.00221064
-0.00222356
-0.00223563
-0.00224686
-0.00225721
-0.00226669
-0.00227529
-0.00228301
-0.00228987
-0.00229587
-0.00230104
-0.00230540
-0.00230898
-0.00231179
-0.00231383
-0.00231508
-0.00231557
-0.00231529
-0.00231427
-0.00231256
-0.00231017
-0.00230714
-0.00230344
-0.00229908
-0.00229403
-0.00228829
-0.00228188
-0.00227481
-0.00226708
-0.00225868
-0.00224964
-0.00223997
-0.00222969
-0.00221882
-0.00220739
-0.00219542
-0.00218291
-0.00216987
-0.00215632
-0.00214227
-0.00212772
-0.00211269
-0.00209716
-0.00208114
-0.00206463
-0.00204762
-0.00203009
-0.00201204
-0.00199346
-0.00197432
-0.00195462
-0.00193432
-0.00191343
-0.00189191
-0.00186977
-0.00184699
-0.00182360
-0.00179962
-0.00177506
-0.00174995
-0.00172431
-0.00169814
-0.00167148
-0.00164434
-0.00161674
-0.00158871
-0.00156027
-0.00153144
-0.00150226
-0.00147280
-0.00144311
-0.00141326
-0.00138330
-0.00135326
-0.00132320
-0.00129317
-0.00126321
-0.00123335
-0.00120360
-0.00117393
-0.00114431
-0.00111471
-0.00108510
-0.00105547
-0.00102581
-0.00099610
-0.00096637
-0.00093666
-0.00090698
-0.00087733
-0.00084773
-0.00081818
-0.00078867
-0.00075919
-0.00072973
-0.00070025
-0.00067073
-0.00064117
-0.00061154
-0.00058182
-0.00055200
-0.00052206
-0.00049202
-0.00046192
-0.00043181
-0.00040172
-0.00037168
-0.00034167
-0.00031169
-0.00028172
-0.00025181
-0.00022199
-0.00019229
-0.00016275
-0.00013337
-0.00010416
-0.00007513
-0.00004631
-0.00001772
0.00001061
0.00003868
0.00006650
0.00009408
0.00012141
0.00014848
0.00017528
0.00020177
0.00022794
0.00025376
0.00027919
0.00030423
0.00032884
0.00035298
0.00037662
0.00039973
0.00042228
0.00044424
0.00046558
0.00048627
0.00050628
0.00052559
0.00054417
0.00056199
0.00057902
0.00059522
0.00061060
0.00062518
0.00063897
0.00065202
0.00066431
0.00067586
0.00068666
0.00069675
0.00070615
0.00071485
0.00072285
0.00073013
0.00073671
0.00074259
0.00074781
0.00075237
0.00075632
0.00075964
0.00076236
0.00076449
0.00076604
0.00076704
0.00076749
0.00076738
0.00076669
0.00076537
0.00076339
0.00076069
0.00075725
0.00075301
0.00074796
0.00074208
0.00073539
0.00072791
0.00071965
0.00071066
0.00070100
0.00069068
0.00067972
0.00066813
0.00065594
0.00064317
0.00062985
0.00061598
0.00060160
0.00058674
0.00057141
0.00055564
0.00053943
0.00052280
0.00050579
0.00048840
0.00047067
0.00045261
0.00043427
0.00041566
0.00039676
0.00037756
0.00035800
0.00033806
0.00031773
0.00029700
0.00027588
0.00025435
0.00023242
0.00021010
0.00018742
0.00016441
0.00014112
0.00011762
0.00009398
0.00007023
0.00004640
0.00002253
-0.00000139
-0.00002535
-0.00004931
-0.00007329
-0.00009726
-0.00012121
-0.00014515
-0.00016905
-0.00019292
-0.00021672
-0.00024042
-0.00026396
-0.00028731
-0.00031044
-0.00033334
-0.00035601
-0.00037846
-0.00040072
-0.00042280
-0.00044474
-0.00046651
-0.00048812
-0.00050953
-0.00053073
-0.00055174
-0.00057255
-0.00059314
-0.00061351
-0.00063366
-0.00065359
-0.00067326
-0.00069264
-0.00071169
-0.00073036
-0.00074862
-0.00076641
-0.00078371
-0.00080049
-0.00081672
-0.00083240
-0.00084750
-0.00086199
-0.00087583
-0.00088899
-0.00090145
-0.00091321
-0.00092427
-0.00093463
-0.00094434
-0.00095345
-0.00096205
-0.00097021
-0.00097798
-0.00098543
-0.00099258
-0.00099948
-0.00100613
-0.00101259
-0.00101887
-0.00102501
-0.00103100
-0.00103685
-0.00104257
-0.00104815
-0.00105363
-0.00105898
-0.00106423
-0.00106934
-0.00107429
-0.00107906
-0.00108360
-0.00108792
-0.00109200
-0.00109584
-0.00109943
-0.00110276
-0.00110583
-0.00110862
-0.00111115
-0.00111342
-0.00111546
-0.00111726
-0.00111883
-0.00112020
-0.00112140
-0.00112246
-0.00112341
-0.00112429
-0.00112513
-0.00112595
-0.00112678
-0.00112765
-0.00112857
-0.00112959
-0.00113071
-0.00113193
-0.00113326
-0.00113467
-0.00113619
-0.00113781
-0.00113956
-0.00114142
-0.00114338
-0.00114544
-0.00114762
-0.00114991
-0.00115232
-0.00115488
-0.00115760
-0.00116049
-0.00116353
-0.00116674
-0.00117013
-0.00117372
-0.00117753
-0.00118156
-0.00118583
-0.00119033
-0.00119506
-0.00119999
-0.00120511
-0.00121038
-0.00121579
-0.00122132
-0.00122697
-0.00123270
-0.00123853
-0.00124446
-0.00125050
-0.00125664
-0.00126287
-0.00126919
-0.00127559
-0.00128208
-0.00128869
-0.00129544
-0.00130234
-0.00130936
-0.00131647
-0.00132364
-0.00133083
-0.00133803
-0.00134518
-0.00135226
-0.00135921
-0.00136601
-0.00137260
-0.00137895
-0.00138507
-0.00139095
-0.00139660
-0.00140205
-0.00140732
-0.00141241
-0.00141731
-0.00142203
-0.00142654
-0.00143084
-0.00143492
-0.00143876
-0.00144228
-0.00144543
-0.00144813
-0.00145033
-0.00145198
-0.00145305
-0.00145349
-0.00145331
-0.00145249
-0.00145103
-0.00144890
-0.00144609
-0.00144259
-0.00143839
-0.00143349
-0.00142789
-0.00142156
-0.00141448
-0.00140664
-0.00139802
-0.00138862
-0.00137847
-0.00136759
-0.00135601
-0.00134377
-0.00133091
-0.00131745
-0.00130343
-0.00128887
-0.00127378
-0.00125819
-0.00124208
-0.00122547
-0.00120838
-0.00119082
-0.00117283
-0.00115443
-0.00113561
-0.00111639
-0.00109678
-0.00107676
-0.00105632
-0.00103544
-0.00101411
-0.00099233
-0.00097011
-0.00094746
-0.00092439
-0.00090090
-0.00087700
-0.00085274
-0.00082814
-0.00080326
-0.00077812
-0.00075277
-0.00072724
-0.00070155
-0.00067573
-0.00064982
-0.00062386
-0.00059793
-0.00057205
-0.00054624
-0.00052052
-0.00049489
-0.00046935
-0.00044394
-0.00041865
-0.00039352
-0.00036856
-0.00034378
-0.00031918
-0.00029480
-0.00027067
-0.00024680
-0.00022320
-0.00019986
-0.00017678
-0.00015396
-0.00013141
-0.00010913
-0.00008715
-0.00006549
-0.00004419
-0.00002328
-0.00000276
0.00001733
0.00003700
0.00005621
0.00007496
0.00009323
0.00011100
0.00012825
0.00014499
0.00016120
0.00017689
0.00019205
0.00020669
0.00022079
0.00023433
0.00024731
0.00025969
0.00027150
0.00028275
0.00029348
0.00030372
0.00031350
0.00032287
0.00033186
0.00034053
0.00034890
0.00035701
0.00036491
0.00037264
0.00038020
0.00038761
0.00039485
0.00040189
0.00040874
0.00041540
0.00042188
0.00042817
0.00043426
0.00044015
0.00044585
0.00045134
0.00045663
0.00046168
0.00046651
0.00047113
0.00047553
0.00047970
0.00048364
0.00048734
0.00049081
0.00049402
0.00049696
0.00049964
0.00050207
0.00050424
0.00050616
0.00050782
0.00050921
0.00051033
0.00051121
0.00051187
0.00051232
0.00051258
0.00051267
0.00051258
0.00051230
0.00051179
0.00051105
0.00051007
0.00050884
0.00050739
0.00050569
0.00050375
0.00050156
0.00049910
0.00049638
0.00049337
0.00049005
0.00048641
0.00048244
0.00047814
0.00047353
0.00046861
0.00046340
0.00045793
0.00045222
0.00044629
0.00044015
0.00043381
0.00042726
0.00042047
0.00041343
0.00040616
0.00039869
0.00039107
0.00038336
0.00037561
0.00036786
0.00036010
0.00035235
0.00034461
0.00033690
0.00032924
0.00032163
0.00031413
0.00030676
0.00029957
0.00029261
0.00028590
0.00027950
0.00027342
0.00026770
0.00026239
0.00025752
0.00025311
0.00024916
0.00024569
0.00024273
0.00024030
0.00023842
0.00023711
0.00023640
0.00023633
0.00023692
0.00023819
0.00024015
0.00024278
0.00024608
0.00025007
0.00025476
0.00026014
0.00026626
0.00027313
0.00028078
0.00028923
0.00029851
0.00030862
0.00031955
0.00033130
0.00034385
0.00035720
0.00037134
0.00038623
0.00040185
0.00041817
0.00043518
0.00045286
0.00047121
0.00049022
0.00050989
0.00053021
0.00055116
0.00057274
0.00059495
0.00061780
0.00064127
0.00066536
0.00069010
0.00071549
0.00074154
0.00076826
0.00079564
0.00082370
0.00085242
0.00088183
0.00091191
0.00094265
0.00097402
0.00100601
0.00103859
0.00107173
0.00110539
0.00113951
0.00117408
0.00120905
0.00124439
0.00128005
0.00131598
0.00135210
0.00138834
0.00142464
0.00146095
0.00149722
0.00153343
0.00156956
0.00160561
0.00164156
0.00167741
0.00171312
0.00174870
0.00178420
0.00181964
0.00185504
0.00189041
0.00192575
0.00196105
0.00199630
0.00203150
0.00206662
0.00210168
0.00213667
0.00217158
0.00220641
0.00224111
0.00227564
0.00230995
0.00234402
0.00237783
0.00241136
0.00244462
0.00247755
0.00251013
0.00254233
0.00257414
0.00260557
0.00263662
0.00266728
0.00269753
0.00272733
0.00275664
0.00278544
0.00281373
0.00284148
0.00286868
0.00289532
0.00292138
0.00294688
0.00297184
0.00299626
0.00302018
0.00304361
0.00306654
0.00308899
0.00311096
0.00313244
0.00315344
0.00317395
0.00319399
0.00321354
0.00323258
0.00325109
0.00326903
0.00328636
0.00330305
0.00331909
0.00333450
0.00334931
0.00336356
0.00337726
0.00339044
0.00340306
0.00341512
0.00342661
0.00343756
0.00344797
0.00345786
0.00346727
0.00347626
0.00348486
0.00349309
0.00350094
0.00350841
0.00351550
0.00352224
0.00352862
0.00353467
0.00354037
0.00354573
0.00355073
0.00355535
0.00355959
0.00356341
0.00356677
0.00356960
0.00357184
0.00357347
0.00357445
0.00357480
0.00357451
0.00357360
0.00357207
0.00356990
0.00356709
0.00356362
0.00355949
0.00355470
0.00354925
0.00354316
0.00353647
0.00352920
0.00352139
0.00351310
0.00350437
0.00349524
0.00348575
0.00347595
0.00346584
0.00345544
0.00344473
0.00343370
0.00342231
0.00341055
0.00339844
0.00338597
0.00337316
0.00335997
0.00334636
0.00333230
0.00331775
0.00330272
0.00328721
0.00327125
0.00325486
0.00323805
0.00322083
0.00320319
0.00318514
0.00316670
0.00314788
0.00312870
0.00310917
0.00308930
0.00306912
0.00304861
0.00302780
0.00300667
0.00298524
0.00296352
0.00294153
0.00291930
0.00289685
0.00287419
0.00285136
0.00282839
0.00280530
0.00278215
0.00275896
0.00273575
0.00271252
0.00268925
0.00266593
0.00264256
0.00261912
0.00259562
0.00257207
0.00254848
0.00252487
0.00250125
0.00247764
0.00245402
0.00243041
0.00240682
0.00238326
0.00235973
0.00233624
0.00231281
0.00228945
0.00226615
0.00224290
0.00221969
0.00219656
0.00217351
0.00215057
0.00212779
0.00210520
0.00208281
0.00206063
0.00203866
0.00201689
0.00199533
0.00197400
0.00195289
0.00193199
0.00191129
0.00189076
0.00187040
0.00185018
0.00183011
0.00181016
0.00179029
0.00177046
0.00175064
0.00173078
0.00171086
0.00169083
0.00167068
0.00165042
0.00163007
0.00160962
0.00158906
0.00156836
0.00154751
0.00152652
0.00150537
0.00148409
0.00146268
0.00144116
0.00141958
0.00139796
0.00137632
0.00135471
0.00133314
0.00131165
0.00129021
0.00126882
0.00124747
0.00122614
0.00120484
0.00118355
0.00116225
0.00114091
0.00111950
0.00109800
0.00107643
0.00105479
0.00103312
0.00101141
0.00098967
0.00096793
0.00094618
0.00092446
0.00090276
0.00088111
0.00085950
0.00083791
0.00081636
0.00079488
0.00077349
0.00075225
0.00073117
0.00071028
0.00068960
0.00066913
0.00064889
0.00062889
0.00060913
0.00058962
0.00057035
0.00055133
0.00053252
0.00051393
0.00049554
0.00047730
0.00045920
0.00044123
0.00042337
0.00040560
0.00038790
0.00037024
0.00035261
0.00033500
0.00031742
0.00029988
0.00028239
0.00026495
0.00024755
0.00023019
0.00021288
0.00019564
0.00017847
0.00016140
0.00014443
0.00012758
0.00011084
0.00009421
0.00007770
0.00006132
0.00004505
0.00002891
0.00001289
-0.00000298
-0.00001871
-0.00003432
-0.00004982
-0.00006526
-0.00008066
-0.00009603
-0.00011139
-0.00012675
-0.00014210
-0.00015747
-0.00017285
-0.00018825
-0.00020370
-0.00021920
-0.00023473
-0.00025027
-0.00026581
-0.00028134
-0.00029691
-0.00031254
-0.00032824
-0.00034403
-0.00035987
-0.00037576
-0.00039168
-0.00040762
-0.00042354
-0.00043944
-0.00045529
-0.00047112
-0.00048691
-0.00050268
-0.00051846
-0.00053423
-0.00055002
-0.00056583
-0.00058169
-0.00059761
-0.00061359
-0.00062964
-0.00064572
-0.00066183
-0.00067794
-0.00069404
-0.00071012
-0.00072617
-0.00074218
-0.00075815
-0.00077406
-0.00078988
-0.00080561
-0.00082123
-0.00083672
-0.00085209
-0.00086731
-0.00088239
-0.00089729
-0.00091200
-0.00092650
-0.00094078
-0.00095481
-0.00096859
-0.00098212
-0.00099540
-0.00100844
-0.00102127
-0.00103391
-0.00104638
-0.00105867
-0.00107079
-0.00108271
-0.00109443
-0.00110594
-0.00111725
-0.00112835
-0.00113924
-0.00114990
-0.00116029
-0.00117034
-0.00118000
-0.00118924
-0.00119799
-0.00120624
-0.00121397
-0.00122117
-0.00122783
-0.00123395
-0.00123952
-0.00124453
-0.00124898
-0.00125285
-0.00125612
-0.00125879
-0.00126085
-0.00126230
-0.00126314
-0.00126337
-0.00126301
-0.00126201
-0.00126038
-0.00125811
-0.00125521
-0.00125168
-0.00124752
-0.00124271
-0.00123727
-0.00123122
-0.00122459
-0.00121740
-0.00120968
-0.00120145
-0.00119270
-0.00118343
-0.00117364
-0.00116331
-0.00115246
-0.00114106
-0.00112911
-0.00111662
-0.00110359
-0.00109002
-0.00107590
-0.00106123
-0.00104601
-0.00103021
-0.00101384
-0.00099687
-0.00097931
-0.00096119
-0.00094254
-0.00092337
-0.00090372
-0.00088363
-0.00086315
-0.00084233
-0.00082121
-0.00079982
-0.00077817
-0.00075631
-0.00073423
-0.00071197
-0.00068951
-0.00066686
-0.00064400
-0.00062092
-0.00059761
-0.00057406
-0.00055029
-0.00052631
-0.00050213
-0.00047774
-0.00045311
-0.00042823
-0.00040305
-0.00037757
-0.00035177
-0.00032564
-0.00029921
-0.00027246
-0.00024540
-0.00021805
-0.00019040
-0.00016247
-0.00013429
-0.00010587
-0.00007723
-0.00004838
-0.00001936
0.00000984
0.00003921
0.00006873
0.00009842
0.00012825
0.00015821
0.00018825
0.00021836
0.00024852
0.00027869
0.00030888
0.00033908
0.00036931
0.00039958
0.00042991
0.00046031
0.00049076
0.00052126
0.00055179
0.00058233
0.00061285
0.00064333
0.00067375
0.00070412
0.00073441
0.00076461
0.00079471
0.00082474
0.00085472
0.00088465
0.00091450
0.00094426
0.00097392
0.00100346
0.00103283
0.00106199
0.00109090
0.00111953
0.00114786
0.00117586
0.00120348
0.00123066
0.00125736
0.00128357
0.00130930
0.00133456
0.00135935
0.00138368
0.00140755
0.00143098
0.00145398
0.00147655
0.00149868
0.00152037
0.00154159
0.00156234
0.00158260
0.00160238
0.00162168
0.00164051
0.00165884
0.00167666
0.00169396
0.00171072
0.00172697
0.00174270
0.00175789
0.00177252
0.00178655
0.00179993
0.00181264
0.00182467
0.00183601
0.00184665
0.00185657
0.00186578
0.00187425
0.00188198
0.00188897
0.00189522
0.00190073
0.00190550
0.00190955
0.00191288
0.00191547
0.00191730
0.00191838
0.00191874
0.00191841
0.00191738
0.00191569
0.00191333
0.00191033
0.00190669
0.00190242
0.00189752
0.00189204
0.00188598
0.00187938
0.00187223
0.00186456
0.00185637
0.00184767
0.00183847
0.00182876
0.00181854
0.00180781
0.00179658
0.00178485
0.00177263
0.00175995
0.00174685
0.00173337
0.00171956
0.00170545
0.00169108
0.00167646
0.00166163
0.00164660
0.00163143
0.00161616
0.00160084
0.00158548
0.00157009
0.00155467
0.00153922
0.00152375
0.00150825
0.00149272
0.00147717
0.00146160
0.00144602
0.00143042
0.00141483
0.00139922
0.00138362
0.00136803
0.00135245
0.00133691
0.00132140
0.00130594
0.00129053
0.00127517
0.00125985
0.00124455
0.00122924
0.00121392
0.00119858
0.00118323
0.00116788
0.00115253
0.00113723
0.00112202
0.00110693
0.00109199
0.00107724
0.00106269
0.00104835
0.00103421
0.00102026
0.00100649
0.00099291
0.00097951
0.00096628
0.00095324
0.00094039
0.00092771
0.00091520
0.00090284
0.00089063
0.00087856
0.00086663
0.00085482
0.00084312
0.00083149
0.00081992
0.00080837
0.00079684
0.00078531
0.00077378
0.00076226
0.00075076
0.00073931
0.00072790
0.00071653
0.00070519
0.00069387
0.00068254
0.00067119
0.00065980
0.00064838
0.00063692
0.00062544
0.00061394
0.00060243
0.00059090
0.00057936
0.00056779
0.00055617
0.00054448
0.00053268
0.00052074
0.00050864
0.00049636
0.00048386
0.00047109
0.00045800
0.00044459
0.00043082
0.00041669
0.00040219
0.00038733
0.00037209
0.00035649
0.00034053
0.00032423
0.00030760
0.00029065
0.00027341
0.00025592
0.00023821
0.00022032
0.00020228
0.00018411
0.00016580
0.00014739
0.00012888
0.00011028
0.00009159
0.00007282
0.00005397
0.00003507
0.00001615
-0.00000280
-0.00002177
-0.00004078
-0.00005981
-0.00007885
-0.00009787
-0.00011686
-0.00013582
-0.00015476
-0.00017374
-0.00019279
-0.00021192
-0.00023113
-0.00025037
-0.00026964
-0.00028892
-0.00030819
-0.00032744
-0.00034667
-0.00036581
-0.00038485
-0.00040372
-0.00042242
-0.00044092
-0.00045918
-0.00047721
-0.00049500
-0.00051258
-0.00052995
-0.00054716
-0.00056419
-0.00058105
-0.00059774
-0.00061428
-0.00063068
-0.00064696
-0.00066313
-0.00067921
-0.00069522
-0.00071119
-0.00072715
-0.00074310
-0.00075907
-0.00077507
-0.00079112
-0.00080720
-0.00082327
-0.00083928
-0.00085521
-0.00087104
-0.00088677
-0.00090239
-0.00091787
-0.00093319
-0.00094833
-0.00096330
-0.00097809
-0.00099273
-0.00100719
-0.00102148
-0.00103558
-0.00104948
-0.00106317
-0.00107662
-0.00108980
-0.00110272
-0.00111537
-0.00112779
-0.00114000
-0.00115205
-0.00116398
-0.00117583
-0.00118761
-0.00119934
-0.00121102
-0.00122263
-0.00123415
-0.00124558
-0.00125692
-0.00126818
-0.00127935
-0.00129041
-0.00130135
-0.00131218
-0.00132295
-0.00133364
-0.00134425
-0.00135476
-0.00136516
-0.00137548
-0.00138571
-0.00139587
-0.00140598
-0.00141606
-0.00142609
-0.00143606
-0.00144593
-0.00145569
-0.00146535
-0.00147493
-0.00148446
-0.00149399
-0.00150350
-0.00151302
-0.00152252
-0.00153202
-0.00154153
-0.00155109
-0.00156074
-0.00157050
-0.00158042
-0.00159048
-0.00160069
-0.00161104
-0.00162151
-0.00163210
-0.00164278
-0.00165353
-0.00166434
-0.00167518
-0.00168606
-0.00169696
-0.00170790
-0.00171888
-0.00172988
-0.00174088
-0.00175187
-0.00176285
-0.00177381
-0.00178477
-0.00179574
-0.00180676
-0.00181785
-0.00182904
-0.00184034
-0.00185175
-0.00186325
-0.00187482
-0.00188645
-0.00189816
-0.00190994
-0.00192182
-0.00193381
-0.00194596
-0.00195829
-0.00197081
-0.00198352
-0.00199643
-0.00200951
-0.00202273
-0.00203605
-0.00204943
-0.00206285
-0.00207628
-0.00208972
-0.00210314
-0.00211652
-0.00212986
-0.00214314
-0.00215634
-0.00216946
-0.00218251
-0.00219549
-0.00220843
-0.00222131
-0.00223415
-0.00224695
-0.00225974
-0.00227253
-0.00228537
-0.00229827
-0.00231127
-0.00232440
-0.00233769
-0.00235113
-0.00236471
-0.00237843
-0.00239228
-0.00240624
-0.00242029
-0.00243441
-0.00244856
-0.00246273
-0.00247687
-0.00249098
-0.00250502
-0.00251900
-0.00253290
-0.00254671
-0.00256041
-0.00257399
-0.00258745
-0.00260077
-0.00261397
-0.00262706
-0.00264003
-0.00265289
-0.00266561
-0.00267816
-0.00269052
-0.00270271
-0.00271473
-0.00272657
-0.00273824
-0.00274974
-0.00276109
-0.00277231
-0.00278344
-0.00279450
-0.00280552
-0.00281653
-0.00282753
-0.00283852
-0.00284949
-0.00286044
-0.00287134
-0.00288219
-0.00289296
-0.00290360
-0.00291409
-0.00292436
-0.00293441
-0.00294419
-0.00295369
-0.00296287
-0.00297171
-0.00298019
-0.00298830
-0.00299604
-0.00300343
-0.00301045
-0.00301708
-0.00302329
-0.00302908
-0.00303446
-0.00303941
-0.00304393
-0.00304802
-0.00305171
-0.00305499
-0.00305789
-0.00306040
-0.00306252
-0.00306425
-0.00306563
-0.00306665
-0.00306733
-0.00306767
-0.00306767
-0.00306732
-0.00306661
-0.00306552
-0.00306402
-0.00306209
-0.00305975
-0.00305699
-0.00305381
-0.00305018
-0.00304608
-0.00304150
-0.00303641
-0.00303082
-0.00302474
-0.00301819
-0.00301116
-0.00300368
-0.00299578
-0.00298750
-0.00297884
-0.00296983
-0.00296050
-0.00295084
-0.00294087
-0.00293059
-0.00291998
-0.00290901
-0.00289767
-0.00288593
-0.00287385
-0.00286145
-0.00284875
-0.00283575
-0.00282243
-0.00280879
-0.00279484
-0.00278056
-0.00276595
-0.00275097
-0.00273560
-0.00271982
-0.00270364
-0.00268705
-0.00267006
-0.00265268
-0.00263492
-0.00261674
-0.00259813
-0.00257908
-0.00255960
-0.00253970
-0.00251939
-0.00249871
-0.00247771
-0.00245643
-0.00243492
-0.00241318
-0.00239121
-0.00236903
-0.00234665
-0.00232409
-0.00230137
-0.00227847
-0.00225539
-0.00223215
-0.00220873
-0.00218515
-0.00216139
-0.00213748
-0.00211342
-0.00208922
-0.00206488
-0.00204040
-0.00201575
-0.00199095
-0.00196596
-0.00194077
-0.00191536
-0.00188972
-0.00186384
-0.00183771
-0.00181132
-0.00178466
-0.00175770
-0.00173043
-0.00170286
-0.00167501
-0.00164690
-0.00161856
-0.00159001
-0.00156128
-0.00153236
-0.00150327
-0.00147401
-0.00144462
-0.00141511
-0.00138551
-0.00135583
-0.00132609
-0.00129629
-0.00126647
-0.00123664
-0.00120681
-0.00117699
-0.00114717
-0.00111736
-0.00108751
-0.00105759
-0.00102759
-0.00099749
-0.00096729
-0.00093698
-0.00090657
-0.00087609
-0.00084555
-0.00081497
-0.00078436
-0.00075373
-0.00072307
-0.00069239
-0.00066171
-0.00063107
-0.00060049
-0.00056998
-0.00053957
-0.00050928
-0.00047912
-0.00044912
-0.00041929
-0.00038963
-0.00036014
-0.00033081
-0.00030163
-0.00027258
-0.00024365
-0.00021482
-0.00018606
-0.00015734
-0.00012865
-0.00010001
-0.00007140
-0.00004284
-0.00001432
0.00001418
0.00004267
0.00007119
0.00009979
0.00012849
0.00015730
0.00018623
0.00021522
0.00024425
0.00027327
0.00030222
0.00033107
0.00035974
0.00038822
0.00041647
0.00044452
0.00047236
0.00049997
0.00052736
0.00055452
0.00058145
0.00060819
0.00063475
0.00066114
0.00068739
0.00071352
0.00073953
0.00076545
0.00079128
0.00081703
0.00084268
0.00086826
0.00089377
0.00091921
0.00094458
0.00096987
0.00099508
0.00102021
0.00104527
0.00107025
0.00109516
0.00112000
0.00114477
0.00116946
0.00119407
0.00121857
0.00124293
0.00126713
0.00129115
0.00131498
0.00133859
0.00136197
0.00138511
0.00140797
0.00143057
0.00145290
0.00147498
0.00149680
0.00151837
0.00153967
0.00156067
0.00158133
0.00160164
0.00162161
0.00164125
0.00166054
0.00167948
0.00169805
0.00171622
0.00173397
0.00175125
0.00176804
0.00178432
0.00180011
0.00181540
0.00183018
0.00184443
0.00185811
0.00187121
0.00188369
0.00189554
0.00190677
0.00191738
0.00192741
0.00193685
0.00194573
0.00195408
0.00196193
0.00196929
0.00197618
0.00198262
0.00198860
0.00199413
0.00199920
0.00200382
0.00200801
0.00201179
0.00201516
0.00201815
0.00202075
0.00202299
0.00202489
0.00202649
0.00202779
0.00202881
0.00202955
0.00203001
0.00203015
0.00202995
0.00202939
0.00202844
0.00202708
0.00202531
0.00202309
0.00202041
0.00201723
0.00201352
0.00200928
0.00200453
0.00199929
0.00199357
0.00198739
0.00198075
0.00197365
0.00196609
0.00195806
0.00194957
0.00194062
0.00193122
0.00192139
0.00191117
0.00190060
0.00188972
0.00187859
0.00186722
0.00185564
0.00184385
0.00183184
0.00181962
0.00180719
0.00179455
0.00178173
0.00176873
0.00175558
0.00174229
0.00172889
0.00171540
0.00170182
0.00168815
0.00167439
0.00166056
0.00164665
0.00163268
0.00161862
0.00160447
0.00159023
0.00157591
0.00156154
0.00154715
0.00153279
0.00151847
0.00150420
0.00148999
0.00147585
0.00146178
0.00144780
0.00143392
0.00142015
0.00140652
0.00139303
0.00137971
0.00136657
0.00135361
0.00134084
0.00132827
0.00131590
0.00130373
0.00129179
0.00128006
0.00126854
0.00125724
0.00124615
0.00123530
0.00122468
0.00121431
0.00120417
0.00119427
0.00118458
0.00117511
0.00116587
0.00115689
0.00114819
0.00113978
0.00113165
0.00112379
0.00111620
0.00110890
0.00110189
0.00109519
0.00108881
0.00108277
0.00107707
0.00107174
0.00106678
0.00106220
0.00105803
0.00105427
0.00105091
0.00104792
0.00104529
0.00104300
0.00104102
0.00103932
0.00103787
0.00103664
0.00103562
0.00103480
0.00103420
0.00103383
0.00103369
0.00103380
0.00103414
0.00103471
0.00103551
0.00103656
0.00103785
0.00103937
0.00104111
0.00104305
0.00104515
0.00104742
0.00104984
0.00105243
0.00105521
0.00105820
0.00106141
0.00106485
0.00106849
0.00107233
0.00107639
0.00108068
0.00108520
0.00108994
0.00109486
0.00109995
0.00110515
0.00111043
0.00111574
0.00112106
0.00112635
0.00113160
0.00113682
0.00114203
0.00114727
0.00115256
0.00115792
0.00116336
0.00116888
0.00117452
0.00118029
0.00118623
0.00119238
0.00119879
0.00120545
0.00121239
0.00121958
0.00122702
0.00123470
0.00124260
0.00125069
0.00125900
0.00126754
0.00127636
0.00128550
0.00129498
0.00130484
0.00131506
0.00132564
0.00133654
0.00134775
0.00135926
0.00137107
0.00138316
0.00139554
0.00140817
0.00142103
0.00143410
0.00144740
0.00146092
0.00147471
0.00148877
0.00150311
0.00151774
0.00153266
0.00154789
0.00156344
0.00157933
0.00159556
0.00161219
0.00162925
0.00164678
0.00166483
0.00168341
0.00170255
0.00172227
0.00174255
0.00176338
0.00178475
0.00180664
0.00182898
0.00185171
0.00187477
0.00189808
0.00192158
0.00194523
0.00196899
0.00199282
0.00201669
0.00204057
0.00206445
0.00208832
0.00211213
0.00213585
0.00215944
0.00218285
0.00220607
0.00222904
0.00225172
0.00227405
0.00229603
0.00231764
0.00233889
0.00235976
0.00238025
0.00240035
0.00242005
0.00243932
0.00245815
0.00247655
0.00249453
0.00251208
0.00252920
0.00254586
0.00256203
0.00257769
0.00259285
0.00260747
0.00262154
0.00263506
0.00264803
0.00266046
0.00267236
0.00268372
0.00269453
0.00270479
0.00271452
0.00272374
0.00273248
0.00274078
0.00274869
0.00275621
0.00276338
0.00277018
0.00277664
0.00278277
0.00278859
0.00279409
0.00279928
0.00280416
0.00280874
0.00281301
0.00281700
0.00282069
0.00282409
0.00282721
0.00283005
0.00283260
0.00283484
0.00283673
0.00283826
0.00283943
0.00284025
0.00284072
0.00284085
0.00284062
0.00284003
0.00283907
0.00283777
0.00283615
0.00283425
0.00283206
0.00282958
0.00282681
0.00282373
0.00282035
0.00281668
0.00281274
0.00280856
0.00280419
0.00279971
0.00279514
0.00279051
0.00278582
0.00278110
0.00277639
0.00277170
0.00276706
0.00276247
0.00275795
0.00275347
0.00274905
0.00274471
0.00274045
0.00273627
0.00273219
0.00272822
0.00272438
0.00272066
0.00271707
0.00271358
0.00271019
0.00270684
0.00270355
0.00270029
0.00269707
0.00269387
0.00269066
0.00268743
0.00268417
0.00268089
0.00267760
0.00267431
0.00267102
0.00266776
0.00266455
0.00266142
0.00265836
0.00265539
0.00265247
0.00264960
0.00264676
0.00264394
0.00264111
0.00263824
0.00263531
0.00263231
0.00262921
0.00262601
0.00262268
0.00261921
0.00261558
0.00261175
0.00260770
0.00260344
0.00259895
0.00259422
0.00258923
0.00258396
0.00257842
0.00257264
0.00256665
0.00256051
0.00255427
0.00254796
0.00254158
0.00253516
0.00252868
0.00252216
0.00251561
0.00250900
0.00250232
0.00249554
0.00248865
0.00248164
0.00247449
0.00246720
0.00245974
0.00245210
0.00244425
0.00243616
0.00242782
0.00241923
0.00241039
0.00240128
0.00239191
0.00238227
0.00237235
0.00236215
0.00235167
0.00234090
0.00232984
0.00231847
0.00230677
0.00229471
0.00228226
0.00226937
0.00225602
0.00224222
0.00222795
0.00221323
0.00219803
0.00218236
0.00216623
0.00214964
0.00213260
0.00211511
0.00209715
0.00207871
0.00205978
0.00204034
0.00202035
0.00199977
0.00197853
0.00195661
0.00193397
0.00191062
0.00188655
0.00186175
0.00183622
0.00180998
0.00178305
0.00175546
0.00172722
0.00169834
0.00166882
0.00163866
0.00160782
0.00157630
0.00154406
0.00151112
0.00147745
0.00144306
0.00140797
0.00137220
0.00133578
0.00129871
0.00126101
0.00122269
0.00118377
0.00114429
0.00110424
0.00106361
0.00102239
0.00098052
0.00093798
0.00089474
0.00085081
0.00080617
0.00076084
0.00071482
0.00066810
0.00062071
0.00057263
0.00052390
0.00047454
0.00042460
0.00037410
0.00032307
0.00027152
0.00021946
0.00016688
0.00011380
0.00006022
0.00000617
-0.00004834
-0.00010328
-0.00015863
-0.00021437
-0.00027046
-0.00032688
-0.00038357
-0.00044051
-0.00049766
-0.00055501
-0.00061252
-0.00067021
-0.00072805
-0.00078606
-0.00084421
-0.00090248
-0.00096088
-0.00101937
-0.00107795
-0.00113660
-0.00119527
-0.00125396
-0.00131262
-0.00137124
-0.00142979
-0.00148822
-0.00154652
-0.00160469
-0.00166272
-0.00172059
-0.00177829
-0.00183577
-0.00189300
-0.00194997
-0.00200664
-0.00206298
-0.00211897
-0.00217456
-0.00222976
-0.00228453
-0.00233886
-0.00239270
-0.00244602
-0.00249881
-0.00255105
-0.00260273
-0.00265386
-0.00270442
-0.00275441
-0.00280383
-0.00285269
-0.00290099
-0.00294873
-0.00299591
-0.00304252
-0.00308853
-0.00313390
-0.00317858
-0.00322250
-0.00326564
-0.00330798
-0.00334952
-0.00339025
-0.00343016
-0.00346922
-0.00350741
-0.00354472
-0.00358117
-0.00361674
-0.00365143
-0.00368522
-0.00371809
-0.00374999
-0.00378090
-0.00381076
-0.00383955
-0.00386722
-0.00389379
-0.00391927
-0.00394365
-0.00396695
-0.00398916
-0.00401028
-0.00403033
-0.00404934
-0.00406733
-0.00408432
-0.00410033
-0.00411532
-0.00412929
-0.00414219
-0.00415400
-0.00416470
-0.00417429
-0.00418274
-0.00419005
-0.00419622
-0.00420127
-0.00420525
-0.00420819
-0.00421011
-0.00421099
-0.00421082
-0.00420960
-0.00420732
-0.00420398
-0.00419960
-0.00419419
-0.00418778
-0.00418036
-0.00417195
-0.00416258
-0.00415226
-0.00414102
-0.00412887
-0.00411581
-0.00410185
-0.00408703
-0.00407138
-0.00405495
-0.00403778
-0.00401992
-0.00400139
-0.00398220
-0.00396237
-0.00394194
-0.00392089
-0.00389925
-0.00387701
-0.00385421
-0.00383082
-0.00380682
-0.00378222
-0.00375701
-0.00373122
-0.00370489
-0.00367802
-0.00365063
-0.00362274
-0.00359435
-0.00356549
-0.00353617
-0.00350641
-0.00347624
-0.00344566
-0.00341473
-0.00338346
-0.00335189
-0.00332003
-0.00328792
-0.00325557
-0.00322304
-0.00319034
-0.00315747
-0.00312447
-0.00309135
-0.00305813
-0.00302482
-0.00299141
-0.00295787
-0.00292421
-0.00289043
-0.00285654
-0.00282256
-0.00278846
-0.00275425
-0.00271993
-0.00268550
-0.00265098
-0.00261635
-0.00258163
-0.00254681
-0.00251191
-0.00247693
-0.00244185
-0.00240669
-0.00237143
-0.00233610
-0.00230070
-0.00226525
-0.00222979
-0.00219434
-0.00215893
-0.00212360
-0.00208838
-0.00205330
-0.00201839
-0.00198365
-0.00194909
-0.00191472
-0.00188053
-0.00184652
-0.00181266
-0.00177893
-0.00174535
-0.00171193
-0.00167871
-0.00164572
-0.00161297
-0.00158047
-0.00154824
-0.00151627
-0.00148459
-0.00145321
-0.00142216
-0.00139144
-0.00136107
-0.00133105
-0.00130143
-0.00127225
-0.00124353
-0.00121531
-0.00118758
-0.00116035
-0.00113363
-0.00110740
-0.00108169
-0.00105651
-0.00103187
-0.00100779
-0.00098431
-0.00096145
-0.00093923
-0.00091766
-0.00089672
-0.00087636
-0.00085657
-0.00083733
-0.00081865
-0.00080053
-0.00078299
-0.00076608
-0.00074982
-0.00073418
-0.00071917
-0.00070476
-0.00069096
-0.00067775
-0.00066515
-0.00065316
-0.00064177
-0.00063097
-0.00062074
-0.00061108
-0.00060199
-0.00059346
-0.00058549
-0.00057810
-0.00057129
-0.00056508
-0.00055951
-0.00055457
-0.00055026
-0.00054658
-0.00054350
-0.00054103
-0.00053914
-0.00053780
-0.00053696
-0.00053658
-0.00053661
-0.00053700
-0.00053771
-0.00053866
-0.00053978
-0.00054105
-0.00054243
-0.00054392
-0.00054550
-0.00054715
-0.00054886
-0.00055062
-0.00055243
-0.00055428
-0.00055614
-0.00055801
-0.00055989
-0.00056177
-0.00056364
-0.00056550
-0.00056739
-0.00056934
-0.00057137
-0.00057351
-0.00057577
-0.00057812
-0.00058055
-0.00058303
-0.00058554
-0.00058807
-0.00059061
-0.00059314
-0.00059562
-0.00059797
-0.00060017
-0.00060219
-0.00060404
-0.00060573
-0.00060729
-0.00060875
-0.00061011
-0.00061140
-0.00061262
-0.00061377
-0.00061485
-0.00061584
-0.00061673
-0.00061746
-0.00061803
-0.00061839
-0.00061854
-0.00061848
-0.00061822
-0.00061775
-0.00061708
-0.00061621
-0.00061514
-0.00061390
-0.00061251
-0.00061099
-0.00060936
-0.00060761
-0.00060575
-0.00060378
-0.00060169
-0.00059947
-0.00059713
-0.00059466
-0.00059205
-0.00058928
-0.00058632
-0.00058314
-0.00057969
-0.00057591
-0.00057179
-0.00056733
-0.00056252
-0.00055735
-0.00055183
-0.00054596
-0.00053974
-0.00053320
-0.00052633
-0.00051917
-0.00051172
-0.00050401
-0.00049602
-0.00048774
-0.00047913
-0.00047019
-0.00046090
-0.00045128
-0.00044131
-0.00043101
-0.00042038
-0.00040941
-0.00039812
-0.00038651
-0.00037459
-0.00036237
-0.00034987
-0.00033710
-0.00032409
-0.00031086
-0.00029743
-0.00028382
-0.00027005
-0.00025612
-0.00024204
-0.00022781
-0.00021341
-0.00019883
-0.00018407
-0.00016914
-0.00015406
-0.00013885
-0.00012353
-0.00010808
-0.00009252
-0.00007688
-0.00006117
-0.00004543
-0.00002965
-0.00001383
0.00000199
0.00001780
0.00003358
0.00004931
0.00006500
0.00008067
0.00009636
0.00011211
0.00012796
0.00014393
0.00016001
0.00017621
0.00019250
0.00020886
0.00022524
0.00024163
0.00025804
0.00027445
0.00029085
0.00030722
0.00032356
0.00033986
0.00035612
0.00037236
0.00038859
0.00040483
0.00042108
0.00043736
0.00045366
0.00046998
0.00048630
0.00050262
0.00051890
0.00053514
0.00055132
0.00056742
0.00058345
0.00059941
0.00061530
0.00063114
0.00064692
0.00066265
0.00067833
0.00069397
0.00070952
0.00072498
0.00074031
0.00075551
0.00077060
0.00078557
0.00080039
0.00081505
0.00082952
0.00084379
0.00085785
0.00087170
0.00088535
0.00089880
0.00091205
0.00092508
0.00093789
0.00095048
0.00096283
0.00097490
0.00098667
0.00099813
0.00100926
0.00102005
0.00103050
0.00104061
0.00105037
0.00105977
0.00106878
0.00107739
0.00108557
0.00109330
0.00110055
0.00110732
0.00111358
0.00111931
0.00112452
0.00112920
0.00113334
0.00113695
0.00114004
0.00114263
0.00114472
0.00114633
0.00114749
0.00114818
0.00114838
0.00114808
0.00114724
0.00114585
0.00114387
0.00114129
0.00113811
0.00113430
0.00112986
0.00112478
0.00111903
0.00111259
0.00110546
0.00109763
0.00108907
0.00107979
0.00106980
0.00105910
0.00104769
0.00103557
0.00102274
0.00100921
0.00099498
0.00098006
0.00096448
0.00094825
0.00093141
0.00091396
0.00089594
0.00087736
0.00085826
0.00083864
0.00081852
0.00079790
0.00077680
0.00075525
0.00073327
0.00071087
0.00068806
0.00066482
0.00064113
0.00061694
0.00059223
0.00056697
0.00054117
0.00051480
0.00048788
0.00046041
0.00043237
0.00040377
0.00037461
0.00034491
0.00031469
0.00028401
0.00025290
0.00022141
0.00018961
0.00015757
0.00012534
0.00009296
0.00006048
0.00002790
-0.00000475
-0.00003744
-0.00007015
-0.00010285
-0.00013555
-0.00016823
-0.00020088
-0.00023346
-0.00026597
-0.00029841
-0.00033078
-0.00036311
-0.00039540
-0.00042766
-0.00045989
-0.00049208
-0.00052421
-0.00055628
-0.00058830
-0.00062028
-0.00065224
-0.00068419
-0.00071612
-0.00074802
-0.00077987
-0.00081167
-0.00084341
-0.00087513
-0.00090683
-0.00093854
-0.00097024
-0.00100191
-0.00103356
-0.00106517
-0.00109673
-0.00112823
-0.00115963
-0.00119090
-0.00122200
-0.00125289
-0.00128356
-0.00131399
-0.00134419
-0.00137417
-0.00140392
-0.00143343
-0.00146270
-0.00149171
-0.00152045
-0.00154893
-0.00157715
-0.00160509
-0.00163276
-0.00166013
-0.00168721
-0.00171401
-0.00174052
-0.00176675
-0.00179267
-0.00181827
-0.00184352
-0.00186838
-0.00189282
-0.00191679
-0.00194026
-0.00196318
-0.00198555
-0.00200735
-0.00202855
-0.00204912
-0.00206902
-0.00208820
-0.00210661
-0.00212423
-0.00214103
-0.00215700
-0.00217214
-0.00218645
-0.00219996
-0.00221266
-0.00222458
-0.00223572
-0.00224608
-0.00225566
-0.00226447
-0.00227253
-0.00227984
-0.00228643
-0.00229231
-0.00229750
-0.00230204
-0.00230595
-0.00230923
-0.00231193
-0.00231405
-0.00231563
-0.00231667
-0.00231721
-0.00231726
-0.00231683
-0.00231593
-0.00231457
-0.00231273
-0.00231040
