-0.80163387
-1.60352753
-1.60360037
-1.60278304
-1.60108907
-1.59854095
-1.59516321
-1.59098017
-1.58601590
-1.58029423
-1.57383871
-1.56667266
-1.55881907
-1.55030068
-1.54113997
-1.53135912
-1.52098007
-1.51002445
-1.49851359
-1.48646852
-1.47390996
-1.46085833
-1.44733375
-1.43335604
-1.41894473
-1.40411906
-1.38889794
-1.37329999
-1.35734350
-1.34104643
-1.32442643
-1.30750086
-1.29028673
-1.27280078
-1.25505938
-1.23707861
-1.21887422
-1.20046164
-1.18185599
-1.16307206
-1.14412434
-1.12502700
-1.10579396
-1.08643881
-1.06697482
-1.04741495
-1.02777185
-1.00805789
-0.98828514
-0.96846537
-0.94861004
-0.92873031
-0.90883705
-0.88894087
-0.86905212
-0.84918086
-0.82933688
-0.80952966
-0.78976842
-0.77006208
-0.75041929
-0.73084845
-0.71135769
-0.69195487
-0.67264761
-0.65344325
-0.63434889
-0.61537134
-0.59651720
-0.57779282
-0.55920432
-0.54075758
-0.52245825
-0.50431173
-0.48632318
-0.46849754
-0.45083950
-0.43335358
-0.41604407
-0.39891507
-0.38197045
-0.36521391
-0.34864892
-0.33227876
-0.31610655
-0.30013520
-0.28436748
-0.26880597
-0.25345308
-0.23831107
-0.22338201
-0.20866781
-0.19417021
-0.17989077
-0.16583088
-0.15199180
-0.13837465
-0.12498043
-0.11180998
-0.09886398
-0.08614296
-0.07364733
-0.06137737
-0.04933321
-0.03751487
-0.02592221
-0.01455499
-0.00341287
0.00750459
0.01819792
0.02866776
0.03891483
0.04893995
0.05874402
0.06832808
0.07769321
0.08684065
0.09577169
0.10448768
0.11299004
0.12128022
0.12935972
0.13723011
0.14489304
0.15235025
0.15960351
0.16665468
0.17350567
0.18015843
0.18661498
0.19287739
0.19894778
0.20482831
0.21052115
0.21602851
0.22135266
0.22649585
0.23146040
0.23624867
0.24086306
0.24530596
0.24957982
0.25368708
0.25763024
0.26141175
0.26503412
0.26849984
0.27181145
0.27497147
0.27798245
0.28084696
0.28356757
0.28614684
0.28858733
0.29089161
0.29306220
0.29510166
0.29701250
0.29879727
0.30045849
0.30199869
0.30342039
0.30472611
0.30591836
0.30699965
0.30797247
0.30883930
0.30960258
0.31026477
0.31082827
0.31129551
0.31166887
0.31195073
0.31214344
0.31224935
0.31227080
0.31221012
0.31206960
0.31185152
0.31155812
0.31119161
0.31075417
0.31024799
0.30967520
0.30903793
0.30833826
0.30757822
0.30675983
0.30588512
0.30495608
0.30397465
0.30294279
0.30186239
0.30073534
0.29956347
0.29834859
0.29709250
0.29579695
0.29446367
0.29309438
0.29169079
0.29025459
0.28878743
0.28729092
0.28576662
0.28421607
0.28264080
0.28104229
0.27942201
0.27778140
0.27612185
0.27444472
0.27275133
0.27104299
0.26932094
0.26758645
0.26584071
0.26408489
0.26232015
0.26054758
0.25876826
0.25698324
0.25519354
0.25340018
0.25160412
0.24980634
0.24800776
0.24620930
0.24441182
0.24261617
0.24082318
0.23903364
0.23724834
0.23546802
0.23369343
0.23192527
0.23016424
0.22841103
0.22666628
0.22493065
0.22320471
0.22148903
0.21978416
0.21809063
0.21640897
0.21473966
0.21308315
0.21143989
0.20981030
0.20819478
0.20659370
0.20500741
0.20343623
0.20188047
0.20034043
0.19881640
0.19730868
0.19581754
0.19434320
0.19288587
0.19144576
0.19002303
0.18861787
0.18723043
0.18586086
0.18450931
0.18317590
0.18186079
0.18056407
0.17928584
0.17802617
0.17678510
0.17556271
0.17435903
0.17317408
0.17200788
0.17086042
0.16973173
0.16862181
0.16753068
0.16645830
0.16540466
0.16436971
0.16335341
0.16235571
0.16137652
0.16041578
0.15947339
0.15854923
0.15764321
0.15675521
0.15588509
0.15503273
0.15419796
0.15338062
0.15258053
0.15179753
0.15103146
0.15028216
0.14954944
0.14883316
0.14813314
0.14744926
0.14678138
0.14612936
0.14549306
0.14487231
0.14426696
0.14367680
0.14310164
0.14254128
0.14199554
0.14146423
0.14094717
0.14044415
0.13995498
0.13947941
0.13901724
0.13856822
0.13813217
0.13770885
0.13729807
0.13689957
0.13651311
0.13613845
0.13577536
0.13542364
0.13508307
0.13475343
0.13443450
0.13412608
0.13382796
0.13353994
0.13326181
0.13299337
0.13273439
0.13248465
0.13224394
0.13201202
0.13178865
0.13157362
0.13136671
0.13116772
0.13097647
0.13079272
0.13061630
0.13044702
0.13028470
0.13012919
0.12998030
0.12983784
0.12970158
0.12957135
0.12944694
0.12932818
0.12921487
0.12910684
0.12900391
0.12890589
0.12881262
0.12872395
0.12863973
0.12855979
0.12848396
0.12841205
0.12834389
0.12827933
0.12821822
0.12816043
0.12810581
0.12805422
0.12800551
0.12795951
0.12791607
0.12787503
0.12783628
0.12779969
0.12776516
0.12773254
0.12770171
0.12767255
0.12764494
0.12761877
0.12759394
0.12757033
0.12754783
0.12752632
0.12750571
0.12748587
0.12746672
0.12744814
0.12743004
0.12741230
0.12739483
0.12737752
0.12736029
0.12734304
0.12732569
0.12730814
0.12729031
0.12727215
0.12725360
0.12723460
0.12721511
0.12719503
0.12717432
0.12715293
0.12713081
0.12710794
0.12708424
0.12705966
0.12703414
0.12700764
0.12698010
0.12695146
0.12692167
0.12689067
0.12685842
0.12682485
0.12678990
0.12675350
0.12671560
0.12667617
0.12663517
0.12659256
0.12654831
0.12650239
0.12645475
0.12640536
0.12635417
0.12630115
0.12624624
0.12618942
0.12613067
0.12607000
0.12600740
0.12594287
0.12587640
0.12580801
0.12573766
0.12566535
0.12559107
0.12551480
0.12543654
0.12535630
0.12527407
0.12518986
0.12510364
0.12501541
0.12492516
0.12483292
0.12473872
0.12464257
0.12454451
0.12444453
0.12434263
0.12423875
0.12413289
0.12402501
0.12391511
0.12380319
0.12368927
0.12357337
0.12345550
0.12333564
0.12321377
0.12308987
0.12296396
0.12283606
0.12270616
0.12257427
0.12244040
0.12230454
0.12216670
0.12202688
0.12188507
0.12174130
0.12159555
0.12144786
0.12129823
0.12114670
0.12099330
0.12083806
0.12068100
0.12052211
0.12036138
0.12019880
0.12003437
0.11986812
0.11970006
0.11953024
0.11935867
0.11918538
0.11901042
0.11883380
0.11865556
0.11847571
0.11829428
0.11811127
0.11792671
0.11774062
0.11755300
0.11736387
0.11717323
0.11698105
0.11678734
0.11659210
0.11639533
0.11619704
0.11599726
0.11579600
0.11559330
0.11538921
0.11518376
0.11497695
0.11476878
0.11455923
0.11434830
0.11413599
0.11392234
0.11370737
0.11349107
0.11327347
0.11305459
0.11283446
0.11261311
0.11239055
0.11216682
0.11194194
0.11171594
0.11148884
0.11126065
0.11103141
0.11080113
0.11056986
0.11033764
0.11010455
0.10987063
0.10963590
0.10940038
0.10916409
0.10892701
0.10868919
0.10845063
0.10821135
0.10797137
0.10773070
0.10748938
0.10724745
0.10700494
0.10676186
0.10651822
0.10627406
0.10602941
0.10578428
0.10553869
0.10529264
0.10504614
0.10479917
0.10455175
0.10430389
0.10405560
0.10380692
0.10355785
0.10330838
0.10305852
0.10280829
0.10255774
0.10230687
0.10205571
0.10180426
0.10155255
0.10130059
0.10104843
0.10079609
0.10054360
0.10029099
0.10003827
0.09978548
0.09953264
0.09927980
0.09902700
0.09877428
0.09852167
0.09826919
0.09801685
0.09776464
0.09751254
0.09726050
0.09700849
0.09675649
0.09650450
0.09625251
0.09600056
0.09574864
0.09549679
0.09524501
0.09499329
0.09474163
0.09449005
0.09423858
0.09398725
0.09373604
0.09348494
0.09323394
0.09298307
0.09273234
0.09248180
0.09223148
0.09198138
0.09173151
0.09148191
0.09123257
0.09098353
0.09073477
0.09048629
0.09023811
0.08999026
0.08974275
0.08949561
0.08924880
0.08900230
0.08875610
0.08851017
0.08826450
0.08801907
0.08777390
0.08752896
0.08728425
0.08703973
0.08679537
0.08655116
0.08630708
0.08606313
0.08581935
0.08557575
0.08533231
0.08508903
0.08484592
0.08460300
0.08436031
0.08411784
0.08387556
0.08363348
0.08339159
0.08314990
0.08290840
0.08266709
0.08242595
0.08218496
0.08194411
0.08170334
0.08146263
0.08122193
0.08098122
0.08074047
0.08049965
0.08025875
0.08001775
0.07977666
0.07953544
0.07929407
0.07905253
0.07881078
0.07856879
0.07832653
0.07808398
0.07784114
0.07759798
0.07735450
0.07711070
0.07686659
0.07662220
0.07637753
0.07613262
0.07588746
0.07564208
0.07539648
0.07515070
0.07490473
0.07465857
0.07441224
0.07416572
0.07391900
0.07367205
0.07342485
0.07317737
0.07292958
0.07268143
0.07243287
0.07218384
0.07193432
0.07168429
0.07143375
0.07118271
0.07093118
0.07067916
0.07042668
0.07017377
0.06992042
0.06966662
0.06941235
0.06915761
0.06890238
0.06864666
0.06839044
0.06813372
0.06787648
0.06761875
0.06736052
0.06710183
0.06684268
0.06658311
0.06632311
0.06606270
0.06580186
0.06554058
0.06527887
0.06501672
0.06475416
0.06449118
0.06422779
0.06396398
0.06369979
0.06343525
0.06317035
0.06290510
0.06263950
0.06237352
0.06210716
0.06184043
0.06157333
0.06130587
0.06103809
0.06077000
0.06050160
0.06023288
0.05996385
0.05969448
0.05942477
0.05915469
0.05888423
0.05861340
0.05834222
0.05807073
0.05779893
0.05752684
0.05725448
0.05698186
0.05670901
0.05643596
0.05616273
0.05588934
0.05561581
0.05534213
0.05506831
0.05479434
0.05452022
0.05424599
0.05397166
0.05369729
0.05342293
0.05314862
0.05287440
0.05260032
0.05232641
0.05205273
0.05177934
0.05150629
0.05123358
0.05096123
0.05068924
0.05041762
0.05014638
0.04987553
0.04960512
0.04933517
0.04906571
0.04879679
0.04852845
0.04826071
0.04799361
0.04772715
0.04746139
0.04719637
0.04693213
0.04666872
0.04640614
0.04614441
0.04588353
0.04562347
0.04536422
0.04510579
0.04484821
0.04459149
0.04433565
0.04408072
0.04382672
0.04357364
0.04332150
0.04307035
0.04282021
0.04257111
0.04232308
0.04207612
0.04183028
0.04158560
0.04134212
0.04109990
0.04085896
0.04061934
0.04038106
0.04014418
0.03990875
0.03967481
0.03944240
0.03921156
0.03898231
0.03875467
0.03852866
0.03830428
0.03808150
0.03786032
0.03764069
0.03742262
0.03720611
0.03699118
0.03677787
0.03656615
0.03635601
0.03614740
0.03594027
0.03573459
0.03553031
0.03532742
0.03512593
0.03492582
0.03472711
0.03452978
0.03433385
0.03413934
0.03394625
0.03375458
0.03356431
0.03337546
0.03318803
0.03300203
0.03281746
0.03263431
0.03245254
0.03227212
0.03209304
0.03191528
0.03173886
0.03156375
0.03138994
0.03121742
0.03104618
0.03087619
0.03070744
0.03053990
0.03037353
0.03020832
0.03004423
0.02988127
0.02971941
0.02955862
0.02939886
0.02924009
0.02908224
0.02892527
0.02876913
0.02861384
0.02845939
0.02830582
0.02815312
0.02800128
0.02785029
0.02770015
0.02755084
0.02740237
0.02725470
0.02710784
0.02696178
0.02681651
0.02667203
0.02652834
0.02638541
0.02624323
0.02610176
0.02596099
0.02582089
0.02568144
0.02554260
0.02540435
0.02526667
0.02512955
0.02499295
0.02485686
0.02472123
0.02458602
0.02445124
0.02431687
0.02418292
0.02404938
0.02391621
0.02378338
0.02365082
0.02351852
0.02338644
0.02325458
0.02312294
0.02299151
0.02286031
0.02272936
0.02259866
0.02246819
0.02233794
0.02220786
0.02207792
0.02194811
0.02181840
0.02168881
0.02155932
0.02142993
0.02130063
0.02117144
0.02104232
0.02091329
0.02078432
0.02065540
0.02052652
0.02039764
0.02026876
0.02013983
0.02001085
0.01988182
0.01975273
0.01962358
0.01949441
0.01936521
0.01923597
0.01910668
0.01897733
0.01884791
0.01871845
0.01858898
0.01845953
0.01833012
0.01820076
0.01807145
0.01794218
0.01781294
0.01768372
0.01755453
0.01742534
0.01729610
0.01716675
0.01703727
0.01690762
0.01677780
0.01664783
0.01651773
0.01638750
0.01625713
0.01612657
0.01599582
0.01586488
0.01573381
0.01560261
0.01547130
0.01533989
0.01520838
0.01507679
0.01494513
0.01481340
0.01468160
0.01454976
0.01441790
0.01428605
0.01415422
0.01402243
0.01389068
0.01375897
0.01362733
0.01349578
0.01336434
0.01323302
0.01310184
0.01297081
0.01283993
0.01270924
0.01257874
0.01244846
0.01231844
0.01218870
0.01205924
0.01193009
0.01180127
0.01167279
0.01154470
0.01141701
0.01128976
0.01116299
0.01103676
0.01091108
0.01078598
0.01066146
0.01053755
0.01041428
0.01029171
0.01016987
0.01004880
0.00992849
0.00980897
0.00969024
0.00957230
0.00945519
0.00933890
0.00922346
0.00910885
0.00899508
0.00888215
0.00877007
0.00865884
0.00854848
0.00843902
0.00833044
0.00822272
0.00811584
0.00800978
0.00790451
0.00780002
0.00769631
0.00759341
0.00749133
0.00739009
0.00728972
0.00719022
0.00709163
0.00699398
0.00689732
0.00680166
0.00670700
0.00661331
0.00652058
0.00642877
0.00633785
0.00624781
0.00615861
0.00607024
0.00598270
0.00589595
0.00580997
0.00572472
0.00564018
0.00555633
0.00547314
0.00539058
0.00530863
0.00522726
0.00514648
0.00506626
0.00498658
0.00490743
0.00482880
0.00475068
0.00467302
0.00459577
0.00451886
0.00444225
0.00436590
0.00428975
0.00421371
0.00413770
0.00406168
0.00398563
0.00390952
0.00383332
0.00375699
0.00368053
0.00360391
0.00352712
0.00345011
0.00337287
0.00329537
0.00321756
0.00313940
0.00306083
0.00298179
0.00290224
0.00282211
0.00274140
0.00266009
0.00257814
0.00249555
0.00241231
0.00232840
0.00224380
0.00215848
0.00207241
0.00198561
0.00189807
0.00180980
0.00172077
0.00163097
0.00154040
0.00144902
0.00135683
0.00126383
0.00117000
0.00107533
0.00097981
0.00088344
0.00078623
0.00068816
0.00058920
0.00048936
0.00038866
0.00028711
0.00018469
0.00008140
-0.00002277
-0.00012780
-0.00023370
-0.00034050
-0.00044825
-0.00055698
-0.00066675
-0.00077758
-0.00088952
-0.00100261
-0.00111689
-0.00123236
-0.00134906
-0.00146699
-0.00158615
-0.00170653
-0.00182810
-0.00195084
-0.00207471
-0.00219965
-0.00232562
-0.00245258
-0.00258052
-0.00270943
-0.00283932
-0.00297022
-0.00310215
-0.00323514
-0.00336922
-0.00350441
-0.00364072
-0.00377815
-0.00391669
-0.00405633
-0.00419709
-0.00433898
-0.00448199
-0.00462611
-0.00477132
-0.00491761
-0.00506498
-0.00521340
-0.00536285
-0.00551331
-0.00566476
-0.00581716
-0.00597049
-0.00612470
-0.00627974
-0.00643558
-0.00659214
-0.00674937
-0.00690720
-0.00706557
-0.00722444
-0.00738377
-0.00754354
-0.00770369
-0.00786420
-0.00802497
-0.00818594
-0.00834706
-0.00850830
-0.00866964
-0.00883106
-0.00899254
-0.00915403
-0.00931552
-0.00947696
-0.00963836
-0.00979969
-0.00996095
-0.01012210
-0.01028312
-0.01044397
-0.01060459
-0.01076496
-0.01092502
-0.01108470
-0.01124393
-0.01140262
-0.01156070
-0.01171815
-0.01187493
-0.01203101
-0.01218634
-0.01234088
-0.01249457
-0.01264736
-0.01279919
-0.01295001
-0.01309977
-0.01324841
-0.01339588
-0.01354212
-0.01368709
-0.01383076
-0.01397310
-0.01411403
-0.01425352
-0.01439153
-0.01452807
-0.01466317
-0.01479680
-0.01492892
-0.01505948
-0.01518844
-0.01531579
-0.01544152
-0.01556561
-0.01568803
-0.01580877
-0.01592782
-0.01604518
-0.01616085
-0.01627481
-0.01638702
-0.01649747
-0.01660612
-0.01671296
-0.01681795
-0.01692111
-0.01702241
-0.01712182
-0.01721934
-0.01731494
-0.01740859
-0.01750026
-0.01758990
-0.01767749
-0.01776300
-0.01784641
-0.01792769
-0.01800681
-0.01808378
-0.01815858
-0.01823120
-0.01830165
-0.01836994
-0.01843607
-0.01850004
-0.01856186
-0.01862153
-0.01867908
-0.01873449
-0.01878775
-0.01883883
-0.01888770
-0.01893435
-0.01897874
-0.01902088
-0.01906078
-0.01909844
-0.01913387
-0.01916705
-0.01919798
-0.01922663
-0.01925297
-0.01927697
-0.01929860
-0.01931785
-0.01933470
-0.01934917
-0.01936123
-0.01937088
-0.01937810
-0.01938288
-0.01938522
-0.01938512
-0.01938259
-0.01937765
-0.01937032
-0.01936061
-0.01934853
-0.01933407
-0.01931724
-0.01929805
-0.01927651
-0.01925261
-0.01922635
-0.01919772
-0.01916672
-0.01913336
-0.01909762
-0.01905948
-0.01901893
-0.01897598
-0.01893065
-0.01888296
-0.01883294
-0.01878061
-0.01872601
-0.01866918
-0.01861016
-0.01854898
-0.01848571
-0.01842039
-0.01835306
-0.01828374
-0.01821249
-0.01813935
-0.01806439
-0.01798767
-0.01790926
-0.01782922
-0.01774760
-0.01766445
-0.01757981
-0.01749372
-0.01740621
-0.01731736
-0.01722721
-0.01713581
-0.01704319
-0.01694939
-0.01685445
-0.01675837
-0.01666118
-0.01656286
-0.01646344
-0.01636293
-0.01626140
-0.01615888
-0.01605542
-0.01595107
-0.01584585
-0.01573981
-0.01563299
-0.01552545
-0.01541725
-0.01530849
-0.01519923
-0.01508957
-0.01497956
-0.01486928
-0.01475876
-0.01464806
-0.01453721
-0.01442628
-0.01431532
-0.01420440
-0.01409357
-0.01398289
-0.01387241
-0.01376220
-0.01365232
-0.01354283
-0.01343380
-0.01332529
-0.01321734
-0.01310997
-0.01300320
-0.01289704
-0.01279150
-0.01268661
-0.01258239
-0.01247889
-0.01237614
-0.01227416
-0.01217298
-0.01207259
-0.01197303
-0.01187431
-0.01177647
-0.01167956
-0.01158360
-0.01148866
-0.01139480
-0.01130207
-0.01121053
-0.01112021
-0.01103115
-0.01094339
-0.01085696
-0.01077192
-0.01068830
-0.01060612
-0.01052544
-0.01044629
-0.01036871
-0.01029272
-0.01021837
-0.01014567
-0.01007464
-0.01000527
-0.00993756
-0.00987149
-0.00980709
-0.00974434
-0.00968329
-0.00962394
-0.00956630
-0.00951037
-0.00945615
-0.00940363
-0.00935282
-0.00930376
-0.00925647
-0.00921097
-0.00916729
-0.00912548
-0.00908560
-0.00904768
-0.00901176
-0.00897784
-0.00894591
-0.00891595
-0.00888797
-0.00886195
-0.00883787
-0.00881573
-0.00879549
-0.00877713
-0.00876063
-0.00874598
-0.00873317
-0.00872220
-0.00871307
-0.00870582
-0.00870046
-0.00869697
-0.00869531
-0.00869546
-0.00869739
-0.00870108
-0.00870652
-0.00871370
-0.00872258
-0.00873314
-0.00874539
-0.00875931
-0.00877489
-0.00879212
-0.00881096
-0.00883138
-0.00885332
-0.00887673
-0.00890157
-0.00892780
-0.00895536
-0.00898418
-0.00901423
-0.00904543
-0.00907775
-0.00911112
-0.00914550
-0.00918082
-0.00921703
-0.00925409
-0.00929196
-0.00933060
-0.00936996
-0.00941000
-0.00945065
-0.00949188
-0.00953363
-0.00957586
-0.00961852
-0.00966156
-0.00970497
-0.00974871
-0.00979275
-0.00983707
-0.00988165
-0.00992643
-0.00997137
-0.01001640
-0.01006149
-0.01010660
-0.01015171
-0.01019679
-0.01024182
-0.01028677
-0.01033163
-0.01037638
-0.01042099
-0.01046543
-0.01050966
-0.01055364
-0.01059731
-0.01064064
-0.01068359
-0.01072615
-0.01076832
-0.01081008
-0.01085144
-0.01089240
-0.01093295
-0.01097306
-0.01101271
-0.01105185
-0.01109047
-0.01112851
-0.01116595
-0.01120279
-0.01123900
-0.01127458
-0.01130950
-0.01134374
-0.01137727
-0.01141011
-0.01144225
-0.01147371
-0.01150449
-0.01153459
-0.01156399
-0.01159270
-0.01162072
-0.01164805
-0.01167466
-0.01170055
-0.01172569
-0.01175006
-0.01177367
-0.01179651
-0.01181856
-0.01183982
-0.01186027
-0.01187986
-0.01189855
-0.01191630
-0.01193308
-0.01194889
-0.01196372
-0.01197756
-0.01199043
-0.01200232
-0.01201323
-0.01202316
-0.01203208
-0.01203998
-0.01204685
-0.01205270
-0.01205756
-0.01206144
-0.01206438
-0.01206637
-0.01206744
-0.01206760
-0.01206685
-0.01206521
-0.01206270
-0.01205930
-0.01205506
-0.01204998
-0.01204409
-0.01203736
-0.01202979
-0.01202140
-0.01201220
-0.01200224
-0.01199156
-0.01198023
-0.01196829
-0.01195574
-0.01194261
-0.01192890
-0.01191466
-0.01189989
-0.01188464
-0.01186893
-0.01185279
-0.01183624
-0.01181930
-0.01180197
-0.01178428
-0.01176628
-0.01174799
-0.01172947
-0.01171075
-0.01169189
-0.01167291
-0.01165386
-0.01163478
-0.01161569
-0.01159659
-0.01157749
-0.01155842
-0.01153942
-0.01152053
-0.01150177
-0.01148320
-0.01146482
-0.01144668
-0.01142877
-0.01141111
-0.01139370
-0.01137656
-0.01135968
-0.01134309
-0.01132680
-0.01131083
-0.01129520
-0.01127989
-0.01126492
-0.01125030
-0.01123604
-0.01122216
-0.01120869
-0.01119562
-0.01118299
-0.01117080
-0.01115911
-0.01114793
-0.01113729
-0.01112721
-0.01111770
-0.01110878
-0.01110045
-0.01109272
-0.01108560
-0.01107909
-0.01107318
-0.01106782
-0.01106301
-0.01105871
-0.01105491
-0.01105159
-0.01104871
-0.01104624
-0.01104414
-0.01104238
-0.01104094
-0.01103978
-0.01103891
-0.01103830
-0.01103795
-0.01103784
-0.01103792
-0.01103816
-0.01103852
-0.01103900
-0.01103964
-0.01104047
-0.01104151
-0.01104278
-0.01104429
-0.01104604
-0.01104805
-0.01105032
-0.01105285
-0.01105563
-0.01105864
-0.01106187
-0.01106532
-0.01106901
-0.01107292
-0.01107709
-0.01108150
-0.01108613
-0.01109096
-0.01109593
-0.01110099
-0.01110611
-0.01111126
-0.01111644
-0.01112163
-0.01112682
-0.01113199
-0.01113713
-0.01114225
-0.01114738
-0.01115254
-0.01115774
-0.01116300
-0.01116832
-0.01117370
-0.01117917
-0.01118475
-0.01119047
-0.01119636
-0.01120242
-0.01120867
-0.01121511
-0.01122175
-0.01122856
-0.01123554
-0.01124266
-0.01124989
-0.01125719
-0.01126454
-0.01127191
-0.01127930
-0.01128669
-0.01129404
-0.01130130
-0.01130841
-0.01131534
-0.01132209
-0.01132865
-0.01133498
-0.01134106
-0.01134686
-0.01135239
-0.01135764
-0.01136263
-0.01136739
-0.01137191
-0.01137621
-0.01138030
-0.01138415
-0.01138775
-0.01139109
-0.01139412
-0.01139683
-0.01139921
-0.01140126
-0.01140297
-0.01140431
-0.01140527
-0.01140584
-0.01140602
-0.01140582
-0.01140523
-0.01140424
-0.01140286
-0.01140109
-0.01139890
-0.01139628
-0.01139321
-0.01138968
-0.01138571
-0.01138129
-0.01137643
-0.01137112
-0.01136537
-0.01135917
-0.01135249
-0.01134532
-0.01133764
-0.01132945
-0.01132072
-0.01131145
-0.01130164
-0.01129130
-0.01128047
-0.01126916
-0.01125740
-0.01124522
-0.01123264
-0.01121967
-0.01120635
-0.01119269
-0.01117868
-0.01116433
-0.01114962
-0.01113453
-0.01111905
-0.01110316
-0.01108686
-0.01107015
-0.01105297
-0.01103529
-0.01101705
-0.01099825
-0.01097886
-0.01095890
-0.01093835
-0.01091724
-0.01089555
-0.01087325
-0.01085033
-0.01082679
-0.01080263
-0.01077787
-0.01075253
-0.01072661
-0.01070011
-0.01067304
-0.01064535
-0.01061706
-0.01058814
-0.01055861
-0.01052846
-0.01049770
-0.01046635
-0.01043443
-0.01040200
-0.01036910
-0.01033576
-0.01030202
-0.01026792
-0.01023351
-0.01019884
-0.01016392
-0.01012876
-0.01009335
-0.01005768
-0.01002176
-0.00998557
-0.00994911
-0.00991238
-0.00987537
-0.00983808
-0.00980048
-0.00976261
-0.00972447
-0.00968609
-0.00964747
-0.00960864
-0.00956962
-0.00953042
-0.00949105
-0.00945150
-0.00941177
-0.00937188
-0.00933185
-0.00929168
-0.00925138
-0.00921095
-0.00917037
-0.00912962
-0.00908869
-0.00904756
-0.00900622
-0.00896466
-0.00892290
-0.00888092
-0.00883872
-0.00879631
-0.00875367
-0.00871081
-0.00866771
-0.00862437
-0.00858077
-0.00853691
-0.00849278
-0.00844841
-0.00840378
-0.00835892
-0.00831380
-0.00826845
-0.00822288
-0.00817709
-0.00813111
-0.00808495
-0.00803863
-0.00799217
-0.00794555
-0.00789879
-0.00785186
-0.00780476
-0.00775752
-0.00771014
-0.00766266
-0.00761508
-0.00756737
-0.00751953
-0.00747154
-0.00742338
-0.00737505
-0.00732653
-0.00727781
-0.00722890
-0.00717980
-0.00713050
-0.00708102
-0.00703136
-0.00698153
-0.00693152
-0.00688130
-0.00683086
-0.00678021
-0.00672936
-0.00667834
-0.00662718
-0.00657587
-0.00652442
-0.00647284
-0.00642116
-0.00636940
-0.00631761
-0.00626581
-0.00621402
-0.00616225
-0.00611052
-0.00605886
-0.00600729
-0.00595581
-0.00590441
-0.00585308
-0.00580181
-0.00575059
-0.00569945
-0.00564843
-0.00559761
-0.00554703
-0.00549675
-0.00544677
-0.00539708
-0.00534769
-0.00529859
-0.00524977
-0.00520124
-0.00515299
-0.00510501
-0.00505730
-0.00500984
-0.00496262
-0.00491567
-0.00486900
-0.00482263
-0.00477659
-0.00473090
-0.00468556
-0.00464056
-0.00459590
-0.00455157
-0.00450755
-0.00446387
-0.00442056
-0.00437765
-0.00433515
-0.00429304
-0.00425128
-0.00420984
-0.00416871
-0.00412786
-0.00408727
-0.00404691
-0.00400679
-0.00396689
-0.00392723
-0.00388779
-0.00384857
-0.00380955
-0.00377072
-0.00373205
-0.00369353
-0.00365516
-0.00361696
-0.00357896
-0.00354116
-0.00350359
-0.00346626
-0.00342920
-0.00339245
-0.00335601
-0.00331989
-0.00328409
-0.00324861
-0.00321345
-0.00317862
-0.00314412
-0.00310997
-0.00307617
-0.00304271
-0.00300957
-0.00297675
-0.00294423
-0.00291202
-0.00288012
-0.00284854
-0.00281731
-0.00278645
-0.00275597
-0.00272587
-0.00269614
-0.00266675
-0.00263768
-0.00260891
-0.00258043
-0.00255227
-0.00252445
-0.00249699
-0.00246992
-0.00244324
-0.00241696
-0.00239109
-0.00236563
-0.00234062
-0.00231609
-0.00229204
-0.00226851
-0.00224549
-0.00222301
-0.00220107
-0.00217969
-0.00215885
-0.00213859
-0.00211892
-0.00209986
-0.00208140
-0.00206355
-0.00204629
-0.00202964
-0.00201361
-0.00199819
-0.00198338
-0.00196917
-0.00195554
-0.00194249
-0.00193002
-0.00191813
-0.00190681
-0.00189608
-0.00188594
-0.00187642
-0.00186752
-0.00185924
-0.00185160
-0.00184464
-0.00183840
-0.00183291
-0.00182818
-0.00182425
-0.00182114
-0.00181885
-0.00181742
-0.00181686
-0.00181718
-0.00181835
-0.00182036
-0.00182317
-0.00182676
-0.00183111
-0.00183618
-0.00184196
-0.00184837
-0.00185537
-0.00186289
-0.00187092
-0.00187943
-0.00188841
-0.00189783
-0.00190770
-0.00191797
-0.00192864
-0.00193971
-0.00195120
-0.00196312
-0.00197549
-0.00198831
-0.00200158
-0.00201531
-0.00202951
-0.00204418
-0.00205934
-0.00207498
-0.00209109
-0.00210763
-0.00212458
-0.00214189
-0.00215955
-0.00217756
-0.00219592
-0.00221459
-0.00223354
-0.00225276
-0.00227221
-0.00229188
-0.00231172
-0.00233169
-0.00235175
-0.00237189
-0.00239211
-0.00241236
-0.00243261
-0.00245284
-0.00247304
-0.00249323
-0.00251338
-0.00253349
-0.00255356
-0.00257359
-0.00259360
-0.00261357
-0.00263346
-0.00265325
-0.00267292
-0.00269244
-0.00271183
-0.00273109
-0.00275022
-0.00276924
-0.00278815
-0.00280696
-0.00282567
-0.00284429
-0.00286278
-0.00288113
-0.00289933
-0.00291737
-0.00293525
-0.00295296
-0.00297050
-0.00298784
-0.00300497
-0.00302187
-0.00303854
-0.00305497
-0.00307116
-0.00308710
-0.00310274
-0.00311809
-0.00313312
-0.00314782
-0.00316220
-0.00317623
-0.00318994
-0.00320333
-0.00321640
-0.00322916
-0.00324161
-0.00325377
-0.00326564
-0.00327725
-0.00328860
-0.00329967
-0.00331046
-0.00332094
-0.00333109
-0.00334090
-0.00335038
-0.00335952
-0.00336826
-0.00337657
-0.00338440
-0.00339173
-0.00339852
-0.00340478
-0.00341051
-0.00341570
-0.00342034
-0.00342443
-0.00342799
-0.00343103
-0.00343359
-0.00343566
-0.00343723
-0.00343828
-0.00343878
-0.00343875
-0.00343817
-0.00343706
-0.00343543
-0.00343330
-0.00343067
-0.00342755
-0.00342395
-0.00341987
-0.00341534
-0.00341037
-0.00340500
-0.00339920
-0.00339299
-0.00338635
-0.00337930
-0.00337185
-0.00336400
-0.00335579
-0.00334723
-0.00333833
-0.00332909
-0.00331952
-0.00330965
-0.00329948
-0.00328903
-0.00327830
-0.00326730
-0.00325602
-0.00324444
-0.00323258
-0.00322047
-0.00320813
-0.00319558
-0.00318284
-0.00316995
-0.00315690
-0.00314375
-0.00313051
-0.00311720
-0.00310386
-0.00309048
-0.00307707
-0.00306363
-0.00305015
-0.00303668
-0.00302324
-0.00300988
-0.00299665
-0.00298355
-0.00297061
-0.00295784
-0.00294524
-0.00293279
-0.00292050
-0.00290836
-0.00289641
-0.00288465
-0.00287311
-0.00286180
-0.00285072
-0.00283989
-0.00282931
-0.00281897
-0.00280889
-0.00279908
-0.00278957
-0.00278036
-0.00277148
-0.00276297
-0.00275486
-0.00274720
-0.00274000
-0.00273329
-0.00272705
-0.00272128
-0.00271597
-0.00271113
-0.00270675
-0.00270284
-0.00269939
-0.00269643
-0.00269396
-0.00269200
-0.00269051
-0.00268948
-0.00268886
-0.00268861
-0.00268867
-0.00268902
-0.00268963
-0.00269048
-0.00269158
-0.00269291
-0.00269449
-0.00269633
-0.00269840
-0.00270072
-0.00270328
-0.00270608
-0.00270912
-0.00271240
-0.00271595
-0.00271979
-0.00272398
-0.00272856
-0.00273353
-0.00273893
-0.00274474
-0.00275096
-0.00275761
-0.00276467
-0.00277208
-0.00277980
-0.00278780
-0.00279607
-0.00280459
-0.00281334
-0.00282231
-0.00283149
-0.00284083
-0.00285031
-0.00285991
-0.00286965
-0.00287952
-0.00288953
-0.00289969
-0.00290998
-0.00292042
-0.00293098
-0.00294166
-0.00295240
-0.00296318
-0.00297396
-0.00298470
-0.00299538
-0.00300594
-0.00301638
-0.00302668
-0.00303682
-0.00304681
-0.00305665
-0.00306633
-0.00307584
-0.00308519
-0.00309434
-0.00310330
-0.00311203
-0.00312052
-0.00312875
-0.00313674
-0.00314449
-0.00315201
-0.00315927
-0.00316625
-0.00317292
-0.00317926
-0.00318526
-0.00319094
-0.00319628
-0.00320129
-0.00320594
-0.00321024
-0.00321418
-0.00321775
-0.00322095
-0.00322378
-0.00322623
-0.00322830
-0.00322999
-0.00323130
-0.00323221
-0.00323276
-0.00323297
-0.00323284
-0.00323237
-0.00323156
-0.00323038
-0.00322880
-0.00322681
-0.00322437
-0.00322146
-0.00321806
-0.00321417
-0.00320978
-0.00320487
-0.00319939
-0.00319332
-0.00318662
-0.00317928
-0.00317130
-0.00316268
-0.00315341
-0.00314347
-0.00313285
-0.00312153
-0.00310949
-0.00309673
-0.00308328
-0.00306916
-0.00305436
-0.00303892
-0.00302284
-0.00300609
-0.00298869
-0.00297064
-0.00295193
-0.00293261
-0.00291267
-0.00289215
-0.00287102
-0.00284928
-0.00282689
-0.00280385
-0.00278018
-0.00275593
-0.00273112
-0.00270578
-0.00267995
-0.00265368
-0.00262701
-0.00259999
-0.00257265
-0.00254500
-0.00251705
-0.00248881
-0.00246031
-0.00243155
-0.00240256
-0.00237335
-0.00234393
-0.00231431
-0.00228451
-0.00225454
-0.00222442
-0.00219414
-0.00216371
-0.00213314
-0.00210242
-0.00207158
-0.00204061
-0.00200954
-0.00197838
-0.00194714
-0.00191583
-0.00188449
-0.00185314
-0.00182180
-0.00179047
-0.00175912
-0.00172775
-0.00169637
-0.00166499
-0.00163363
-0.00160229
-0.00157098
-0.00153971
-0.00150847
-0.00147726
-0.00144608
-0.00141491
-0.00138375
-0.00135258
-0.00132140
-0.00129020
-0.00125899
-0.00122777
-0.00119655
-0.00116533
-0.00113414
-0.00110302
-0.00107201
-0.00104115
-0.00101046
-0.00097994
-0.00094961
-0.00091946
-0.00088951
-0.00085975
-0.00083015
-0.00080073
-0.00077147
-0.00074239
-0.00071348
-0.00068474
-0.00065612
-0.00062761
-0.00059915
-0.00057071
-0.00054225
-0.00051377
-0.00048525
-0.00045668
-0.00042805
-0.00039937
-0.00037066
-0.00034193
-0.00031318
-0.00028441
-0.00025563
-0.00022686
-0.00019814
-0.00016949
-0.00014094
-0.00011252
-0.00008422
-0.00005604
-0.00002795
0.00000003
0.00002793
0.00005572
0.00008339
0.00011095
0.00013840
0.00016577
0.00019307
0.00022033
0.00024754
0.00027473
0.00030190
0.00032909
0.00035632
0.00038361
0.00041097
0.00043841
0.00046593
0.00049355
0.00052127
0.00054908
0.00057702
0.00060507
0.00063323
0.00066149
0.00068982
0.00071820
0.00074664
0.00077516
0.00080379
0.00083255
0.00086145
0.00089050
0.00091971
0.00094911
0.00097872
0.00100859
0.00103869
0.00106900
0.00109949
0.00113014
0.00116093
0.00119186
0.00122296
0.00125423
0.00128570
0.00131741
0.00134939
0.00138165
0.00141420
0.00144705
0.00148020
0.00151367
0.00154748
0.00158161
0.00161609
0.00165091
0.00168607
0.00172158
0.00175742
0.00179359
0.00183010
0.00186691
0.00190403
0.00194143
0.00197911
0.00201706
0.00205526
0.00209369
0.00213238
0.00217134
0.00221056
0.00225004
0.00228975
0.00232967
0.00236978
0.00241009
0.00245060
0.00249134
0.00253233
0.00257359
0.00261513
0.00265697
0.00269909
0.00274149
0.00278418
0.00282716
0.00287044
0.00291405
0.00295797
0.00300220
0.00304673
0.00309154
0.00313663
0.00318199
0.00322760
0.00327343
0.00331942
0.00336553
0.00341171
0.00345792
0.00350413
0.00355030
0.00359636
0.00364225
0.00368792
0.00373333
0.00377844
0.00382324
0.00386769
0.00391178
0.00395549
0.00399879
0.00404169
0.00408414
0.00412611
0.00416755
0.00420842
0.00424870
0.00428837
0.00432742
0.00436583
0.00440360
0.00444076
0.00447732
0.00451331
0.00454874
0.00458363
0.00461799
0.00465182
0.00468511
0.00471786
0.00475004
0.00478163
0.00481260
0.00484291
0.00487256
0.00490153
0.00492981
0.00495741
0.00498429
0.00501046
0.00503595
0.00506079
0.00508505
0.00510877
0.00513202
0.00515485
0.00517731
0.00519944
0.00522127
0.00524281
0.00526410
0.00528517
0.00530607
0.00532680
0.00534738
0.00536780
0.00538804
0.00540811
0.00542801
0.00544774
0.00546732
0.00548677
0.00550609
0.00552528
0.00554433
0.00556323
0.00558196
0.00560047
0.00561874
0.00563674
0.00565445
0.00567186
0.00568898
0.00570580
0.00572233
0.00573851
0.00575433
0.00576975
0.00578476
0.00579935
0.00581351
0.00582726
0.00584058
0.00585347
0.00586594
0.00587800
0.00588966
0.00590094
0.00591184
0.00592237
0.00593254
0.00594232
0.00595171
0.00596069
0.00596925
0.00597739
0.00598512
0.00599242
0.00599928
0.00600571
0.00601170
0.00601726
0.00602236
0.00602700
0.00603116
0.00603483
0.00603801
0.00604067
0.00604284
0.00604455
0.00604586
0.00604682
0.00604748
0.00604783
0.00604788
0.00604765
0.00604714
0.00604639
0.00604543
0.00604431
0.00604304
0.00604163
0.00604008
0.00603838
0.00603653
0.00603455
0.00603246
0.00603031
0.00602812
0.00602594
0.00602377
0.00602160
0.00601944
0.00601729
0.00601516
0.00601309
0.00601108
0.00600918
0.00600741
0.00600581
0.00600441
0.00600321
0.00600224
0.00600154
0.00600117
0.00600115
0.00600149
0.00600218
0.00600319
0.00600453
0.00600618
0.00600813
0.00601041
0.00601300
0.00601587
0.00601901
0.00602240
0.00602605
0.00602995
0.00603410
0.00603852
0.00604322
0.00604821
0.00605348
0.00605902
0.00606479
0.00607074
0.00607682
0.00608300
0.00608925
0.00609556
0.00610189
0.00610820
0.00611450
0.00612079
0.00612708
0.00613338
0.00613972
0.00614611
0.00615256
0.00615909
0.00616570
0.00617239
0.00617916
0.00618600
0.00619288
0.00619978
0.00620669
0.00621361
0.00622054
0.00622745
0.00623429
0.00624103
0.00624760
0.00625393
0.00625995
0.00626564
0.00627099
0.00627598
0.00628060
0.00628483
0.00628867
0.00629212
0.00629519
0.00629790
0.00630022
0.00630216
0.00630370
0.00630484
0.00630559
0.00630596
0.00630597
0.00630562
0.00630491
0.00630384
0.00630241
0.00630061
0.00629846
0.00629599
0.00629324
0.00629021
0.00628692
0.00628340
0.00627965
0.00627566
0.00627143
0.00626693
0.00626214
0.00625704
0.00625162
0.00624588
0.00623985
0.00623353
0.00622693
0.00622008
0.00621302
0.00620577
0.00619834
0.00619072
0.00618293
0.00617497
0.00616687
0.00615866
0.00615037
0.00614205
0.00613373
0.00612543
0.00611717
0.00610897
0.00610081
0.00609268
0.00608458
0.00607648
0.00606839
0.00606031
0.00605226
0.00604423
0.00603621
0.00602816
0.00602002
0.00601176
0.00600332
0.00599470
0.00598588
0.00597685
0.00596762
0.00595821
0.00594861
0.00593884
0.00592887
0.00591871
0.00590835
0.00589780
0.00588708
0.00587619
0.00586512
0.00585385
0.00584236
0.00583065
0.00581871
0.00580656
0.00579421
0.00578167
0.00576895
0.00575608
0.00574307
0.00572992
0.00571663
0.00570318
0.00568957
0.00567577
0.00566179
0.00564760
0.00563321
0.00561862
0.00560384
0.00558889
0.00557374
0.00555842
0.00554291
0.00552722
0.00551135
0.00549529
0.00547901
0.00546251
0.00544580
0.00542892
0.00541187
0.00539464
0.00537723
0.00535964
0.00534186
0.00532389
0.00530573
0.00528737
0.00526882
0.00525004
0.00523102
0.00521174
0.00519214
0.00517221
0.00515194
0.00513135
0.00511041
0.00508913
0.00506747
0.00504541
0.00502292
0.00499995
0.00497651
0.00495258
0.00492815
0.00490319
0.00487767
0.00485155
0.00482479
0.00479737
0.00476929
0.00474057
0.00471122
0.00468125
0.00465063
0.00461938
0.00458752
0.00455510
0.00452217
0.00448875
0.00445484
0.00442043
0.00438554
0.00435017
0.00431431
0.00427798
0.00424117
0.00420388
0.00416612
0.00412789
0.00408917
0.00404996
0.00401023
0.00396999
0.00392926
0.00388805
0.00384636
0.00380420
0.00376157
0.00371849
0.00367493
0.00363091
0.00358643
0.00354152
0.00349619
0.00345041
0.00340418
0.00335750
0.00331035
0.00326275
0.00321470
0.00316619
0.00311723
0.00306785
0.00301803
0.00296781
0.00291718
0.00286617
0.00281476
0.00276296
0.00271080
0.00265829
0.00260544
0.00255224
0.00249871
0.00244482
0.00239057
0.00233597
0.00228103
0.00222576
0.00217018
0.00211429
0.00205810
0.00200164
0.00194492
0.00188798
0.00183085
0.00177358
0.00171621
0.00165877
0.00160127
0.00154373
0.00148614
0.00142852
0.00137090
0.00131328
0.00125565
0.00119801
0.00114035
0.00108269
0.00102502
0.00096736
0.00090971
0.00085209
0.00079450
0.00073697
0.00067950
0.00062212
0.00056481
0.00050757
0.00045041
0.00039331
0.00033630
0.00027939
0.00022258
0.00016591
0.00010936
0.00005292
-0.00000346
-0.00005981
-0.00011617
-0.00017255
-0.00022893
-0.00028529
-0.00034163
-0.00039796
-0.00045427
-0.00051054
-0.00056675
-0.00062289
-0.00067895
-0.00073493
-0.00079083
-0.00084665
-0.00090238
-0.00095802
-0.00101357
-0.00106903
-0.00112441
-0.00117970
-0.00123488
-0.00128995
-0.00134488
-0.00139963
-0.00145417
-0.00150850
-0.00156261
-0.00161650
-0.00167016
-0.00172358
-0.00177675
-0.00182965
-0.00188228
-0.00193463
-0.00198671
-0.00203852
-0.00209006
-0.00214133
-0.00219233
-0.00224306
-0.00229354
-0.00234378
-0.00239378
-0.00244354
-0.00249304
-0.00254225
-0.00259116
-0.00263976
-0.00268808
-0.00273614
-0.00278395
-0.00283150
-0.00287879
-0.00292581
-0.00297258
-0.00301912
-0.00306543
-0.00311154
-0.00315744
-0.00320311
-0.00324854
-0.00329376
-0.00333876
-0.00338358
-0.00342825
-0.00347280
-0.00351722
-0.00356152
-0.00360566
-0.00364963
-0.00369341
-0.00373700
-0.00378044
-0.00382377
-0.00386703
-0.00391025
-0.00395343
-0.00399656
-0.00403962
-0.00408261
-0.00412550
-0.00416828
-0.00421093
-0.00425343
-0.00429579
-0.00433801
-0.00438011
-0.00442209
-0.00446398
-0.00450576
-0.00454748
-0.00458913
-0.00463074
-0.00467229
-0.00471380
-0.00475528
-0.00479674
-0.00483819
-0.00487963
-0.00492108
-0.00496254
-0.00500399
-0.00504540
-0.00508675
-0.00512802
-0.00516919
-0.00521024
-0.00525115
-0.00529187
-0.00533239
-0.00537266
-0.00541267
-0.00545238
-0.00549179
-0.00553090
-0.00556970
-0.00560818
-0.00564636
-0.00568423
-0.00572179
-0.00575903
-0.00579593
-0.00583251
-0.00586878
-0.00590474
-0.00594042
-0.00597581
-0.00601093
-0.00604579
-0.00608040
-0.00611477
-0.00614892
-0.00618290
-0.00621670
-0.00625035
-0.00628382
-0.00631711
-0.00635021
-0.00638312
-0.00641584
-0.00644836
-0.00648069
-0.00651281
-0.00654473
-0.00657646
-0.00660799
-0.00663930
-0.00667039
-0.00670126
-0.00673191
-0.00676233
-0.00679252
-0.00682248
-0.00685220
-0.00688167
-0.00691091
-0.00693991
-0.00696867
-0.00699719
-0.00702548
-0.00705354
-0.00708136
-0.00710893
-0.00713626
-0.00716334
-0.00719019
-0.00721677
-0.00724306
-0.00726903
-0.00729463
-0.00731985
-0.00734467
-0.00736912
-0.00739319
-0.00741690
-0.00744025
-0.00746322
-0.00748580
-0.00750798
-0.00752976
-0.00755115
-0.00757216
-0.00759278
-0.00761302
-0.00763288
-0.00765237
-0.00767152
-0.00769036
-0.00770889
-0.00772710
-0.00774500
-0.00776256
-0.00777980
-0.00779672
-0.00781331
-0.00782958
-0.00784551
-0.00786111
-0.00787640
-0.00789138
-0.00790607
-0.00792044
-0.00793448
-0.00794817
-0.00796150
-0.00797446
-0.00798703
-0.00799917
-0.00801086
-0.00802207
-0.00803277
-0.00804294
-0.00805254
-0.00806152
-0.00806983
-0.00807746
-0.00808440
-0.00809065
-0.00809617
-0.00810092
-0.00810489
-0.00810806
-0.00811043
-0.00811198
-0.00811270
-0.00811261
-0.00811167
-0.00810987
-0.00810723
-0.00810372
-0.00809933
-0.00809403
-0.00808781
-0.00808066
-0.00807260
-0.00806367
-0.00805391
-0.00804336
-0.00803203
-0.00801992
-0.00800702
-0.00799328
-0.00797867
-0.00796319
-0.00794682
-0.00792955
-0.00791138
-0.00789229
-0.00787230
-0.00785140
-0.00782962
-0.00780697
-0.00778349
-0.00775918
-0.00773404
-0.00770807
-0.00768128
-0.00765367
-0.00762527
-0.00759608
-0.00756610
-0.00753534
-0.00750380
-0.00747148
-0.00743839
-0.00740452
-0.00736988
-0.00733449
-0.00729835
-0.00726148
-0.00722388
-0.00718556
-0.00714653
-0.00710675
-0.00706623
-0.00702495
-0.00698292
-0.00694017
-0.00689668
-0.00685248
-0.00680759
-0.00676202
-0.00671578
-0.00666889
-0.00662133
-0.00657315
-0.00652436
-0.00647500
-0.00642510
-0.00637466
-0.00632369
-0.00627220
-0.00622019
-0.00616769
-0.00611475
-0.00606136
-0.00600753
-0.00595326
-0.00589859
-0.00584354
-0.00578816
-0.00573249
-0.00567654
-0.00562036
-0.00556400
-0.00550749
-0.00545088
-0.00539424
-0.00533762
-0.00528103
-0.00522448
-0.00516797
-0.00511150
-0.00505503
-0.00499856
-0.00494205
-0.00488553
-0.00482900
-0.00477251
-0.00471605
-0.00465964
-0.00460327
-0.00454696
-0.00449072
-0.00443456
-0.00437851
-0.00432258
-0.00426680
-0.00421120
-0.00415580
-0.00410063
-0.00404571
-0.00399101
-0.00393653
-0.00388226
-0.00382822
-0.00377443
-0.00372090
-0.00366765
-0.00361468
-0.00356199
-0.00350955
-0.00345735
-0.00340539
-0.00335367
-0.00330220
-0.00325098
-0.00320001
-0.00314927
-0.00309873
-0.00304841
-0.00299833
-0.00294850
-0.00289895
-0.00284969
-0.00280076
-0.00275218
-0.00270393
-0.00265600
-0.00260838
-0.00256106
-0.00251403
-0.00246729
-0.00242083
-0.00237467
-0.00232876
-0.00228310
-0.00223764
-0.00219241
-0.00214740
-0.00210262
-0.00205807
-0.00201377
-0.00196970
-0.00192583
-0.00188212
-0.00183854
-0.00179509
-0.00175175
-0.00170854
-0.00166544
-0.00162244
-0.00157951
-0.00153663
-0.00149380
-0.00145101
-0.00140829
-0.00136565
-0.00132313
-0.00128076
-0.00123857
-0.00119659
-0.00115483
-0.00111331
-0.00107202
-0.00103094
-0.00099006
-0.00094936
-0.00090881
-0.00086841
-0.00082818
-0.00078811
-0.00074820
-0.00070847
-0.00066893
-0.00062961
-0.00059053
-0.00055172
-0.00051324
-0.00047512
-0.00043737
-0.00040002
-0.00036306
-0.00032651
-0.00029038
-0.00025468
-0.00021943
-0.00018464
-0.00015032
-0.00011648
-0.00008311
-0.00005022
-0.00001783
0.00001405
0.00004537
0.00007611
0.00010624
0.00013571
0.00016453
0.00019265
0.00022008
0.00024680
0.00027283
0.00029818
0.00032288
0.00034695
0.00037039
0.00039320
0.00041538
0.00043692
0.00045783
0.00047810
0.00049775
0.00051676
0.00053513
0.00055285
0.00056993
0.00058638
0.00060219
0.00061739
0.00063199
0.00064599
0.00065941
0.00067227
0.00068455
0.00069624
0.00070731
0.00071777
0.00072760
0.00073679
0.00074532
0.00075316
0.00076029
0.00076668
0.00077227
0.00077701
0.00078089
0.00078392
0.00078612
0.00078753
0.00078814
0.00078797
0.00078702
0.00078528
0.00078278
0.00077952
0.00077554
0.00077085
0.00076546
0.00075938
0.00075261
0.00074517
0.00073709
0.00072839
0.00071907
0.00070916
0.00069866
0.00068757
0.00067591
0.00066366
0.00065083
0.00063745
0.00062351
0.00060905
0.00059407
0.00057859
0.00056262
0.00054619
0.00052932
0.00051205
0.00049441
0.00047645
0.00045820
0.00043971
0.00042099
0.00040208
0.00038298
0.00036373
0.00034438
0.00032498
0.00030557
0.00028617
0.00026680
0.00024747
0.00022822
0.00020908
0.00019006
0.00017122
0.00015259
0.00013423
0.00011620
0.00009855
0.00008133
0.00006458
0.00004836
0.00003268
0.00001761
0.00000316
-0.00001064
-0.00002379
-0.00003629
-0.00004815
-0.00005939
-0.00007002
-0.00008002
-0.00008938
-0.00009807
-0.00010608
-0.00011339
-0.00011996
-0.00012572
-0.00013063
-0.00013466
-0.00013781
-0.00014008
-0.00014148
-0.00014200
-0.00014167
-0.00014047
-0.00013840
-0.00013544
-0.00013158
-0.00012683
-0.00012118
-0.00011465
-0.00010725
-0.00009902
-0.00009001
-0.00008023
-0.00006973
-0.00005852
-0.00004661
-0.00003401
-0.00002073
-0.00000680
0.00000778
0.00002294
0.00003865
0.00005486
0.00007154
0.00008868
0.00010626
0.00012429
0.00014273
0.00016152
0.00018061
0.00019995
0.00021953
0.00023932
0.00025929
0.00027944
0.00029973
0.00032014
0.00034061
0.00036112
0.00038164
0.00040213
0.00042257
0.00044292
0.00046312
0.00048314
0.00050294
0.00052250
0.00054176
0.00056068
0.00057924
0.00059743
0.00061523
0.00063264
0.00064969
0.00066636
0.00068265
0.00069854
0.00071402
0.00072906
0.00074364
0.00075774
0.00077130
0.00078429
0.00079667
0.00080840
0.00081947
0.00082985
0.00083954
0.00084850
0.00085671
0.00086413
0.00087072
0.00087647
0.00088137
0.00088542
0.00088857
0.00089081
0.00089212
0.00089248
0.00089185
0.00089022
0.00088755
0.00088383
0.00087904
0.00087317
0.00086623
0.00085821
0.00084913
0.00083896
0.00082771
0.00081537
0.00080193
0.00078737
0.00077170
0.00075488
0.00073690
0.00071776
0.00069747
0.00067606
0.00065356
0.00063000
0.00060540
0.00057977
0.00055310
0.00052538
0.00049660
0.00046674
0.00043578
0.00040371
0.00037054
0.00033629
0.00030097
0.00026460
0.00022718
0.00018874
0.00014928
0.00010884
0.00006742
0.00002505
-0.00001829
-0.00006260
-0.00010789
-0.00015418
-0.00020143
-0.00024962
-0.00029870
-0.00034863
-0.00039938
-0.00045088
-0.00050309
-0.00055598
-0.00060953
-0.00066370
-0.00071847
-0.00077381
-0.00082971
-0.00088613
-0.00094302
-0.00100033
-0.00105800
-0.00111596
-0.00117419
-0.00123268
-0.00129140
-0.00135032
-0.00140943
-0.00146870
-0.00152810
-0.00158762
-0.00164723
-0.00170693
-0.00176669
-0.00182649
-0.00188629
-0.00194604
-0.00200569
-0.00206519
-0.00212448
-0.00218352
-0.00224226
-0.00230064
-0.00235865
-0.00241624
-0.00247340
-0.00253007
-0.00258624
-0.00264183
-0.00269682
-0.00275115
-0.00280478
-0.00285768
-0.00290978
-0.00296105
-0.00301144
-0.00306094
-0.00310951
-0.00315714
-0.00320382
-0.00324956
-0.00329436
-0.00333824
-0.00338118
-0.00342321
-0.00346432
-0.00350450
-0.00354375
-0.00358204
-0.00361933
-0.00365558
-0.00369076
-0.00372484
-0.00375778
-0.00378956
-0.00382018
-0.00384967
-0.00387803
-0.00390527
-0.00393137
-0.00395631
-0.00398006
-0.00400260
-0.00402392
-0.00404402
-0.00406290
-0.00408053
-0.00409688
-0.00411192
-0.00412564
-0.00413801
-0.00414902
-0.00415863
-0.00416683
-0.00417361
-0.00417898
-0.00418294
-0.00418551
-0.00418667
-0.00418644
-0.00418482
-0.00418183
-0.00417747
-0.00417178
-0.00416477
-0.00415647
-0.00414688
-0.00413606
-0.00412407
-0.00411098
-0.00409687
-0.00408182
-0.00406590
-0.00404915
-0.00403158
-0.00401323
-0.00399410
-0.00397422
-0.00395361
-0.00393229
-0.00391027
-0.00388756
-0.00386417
-0.00384015
-0.00381552
-0.00379032
-0.00376456
-0.00373825
-0.00371136
-0.00368390
-0.00365587
-0.00362729
-0.00359821
-0.00356867
-0.00353872
-0.00350841
-0.00347779
-0.00344688
-0.00341573
-0.00338435
-0.00335276
-0.00332100
-0.00328910
-0.00325711
-0.00322507
-0.00319300
-0.00316090
-0.00312878
-0.00309667
-0.00306457
-0.00303251
-0.00300052
-0.00296862
-0.00293680
-0.00290508
-0.00287344
-0.00284192
-0.00281050
-0.00277920
-0.00274799
-0.00271686
-0.00268580
-0.00265481
-0.00262389
-0.00259307
-0.00256234
-0.00253173
-0.00250126
-0.00247096
-0.00244086
-0.00241096
-0.00238126
-0.00235175
-0.00232242
-0.00229327
-0.00226431
-0.00223554
-0.00220697
-0.00217862
-0.00215047
-0.00212250
-0.00209468
-0.00206702
-0.00203948
-0.00201206
-0.00198478
-0.00195763
-0.00193060
-0.00190365
-0.00187678
-0.00184997
-0.00182323
-0.00179657
-0.00176999
-0.00174350
-0.00171710
-0.00169076
-0.00166449
-0.00163828
-0.00161211
-0.00158597
-0.00155983
-0.00153365
-0.00150741
-0.00148110
-0.00145472
-0.00142824
-0.00140167
-0.00137499
-0.00134818
-0.00132119
-0.00129396
-0.00126646
-0.00123866
-0.00121052
-0.00118201
-0.00115310
-0.00112375
-0.00109393
-0.00106361
-0.00103278
-0.00100144
-0.00096958
-0.00093720
-0.00090431
-0.00087093
-0.00083705
-0.00080271
-0.00076790
-0.00073266
-0.00069700
-0.00066093
-0.00062444
-0.00058752
-0.00055014
-0.00051232
-0.00047404
-0.00043527
-0.00039603
-0.00035629
-0.00031607
-0.00027536
-0.00023417
-0.00019247
-0.00015021
-0.00010737
-0.00006391
-0.00001982
0.00002487
0.00007013
0.00011593
0.00016224
0.00020904
0.00025630
0.00030403
0.00035221
0.00040083
0.00044988
0.00049933
0.00054918
0.00059944
0.00065010
0.00070114
0.00075253
0.00080423
0.00085620
0.00090840
0.00096083
0.00101343
0.00106620
0.00111909
0.00117209
0.00122520
0.00127839
0.00133162
0.00138486
0.00143805
0.00149111
0.00154402
0.00159673
0.00164922
0.00170147
0.00175345
0.00180514
0.00185652
0.00190757
0.00195828
0.00200867
0.00205872
0.00210843
0.00215776
0.00220668
0.00225515
0.00230318
0.00235075
0.00239783
0.00244441
0.00249044
0.00253590
0.00258076
0.00262499
0.00266855
0.00271142
0.00275356
0.00279498
0.00283568
0.00287566
0.00291490
0.00295339
0.00299114
0.00302818
0.00306456
0.00310029
0.00313537
0.00316981
0.00320361
0.00323679
0.00326934
0.00330125
0.00333249
0.00336307
0.00339298
0.00342225
0.00345089
0.00347890
0.00350627
0.00353301
0.00355911
0.00358456
0.00360934
0.00363345
0.00365688
0.00367965
0.00370178
0.00372331
0.00374424
0.00376458
0.00378432
0.00380347
0.00382205
0.00384007
0.00385755
0.00387448
0.00389084
0.00390662
0.00392184
0.00393649
0.00395060
0.00396417
0.00397722
0.00398978
0.00400186
0.00401345
0.00402454
0.00403512
0.00404517
0.00405472
0.00406377
0.00407238
0.00408054
0.00408827
0.00409555
0.00410236
0.00410870
0.00411456
0.00411996
0.00412491
0.00412946
0.00413360
0.00413736
0.00414076
0.00414384
0.00414665
0.00414920
0.00415150
0.00415353
0.00415526
0.00415669
0.00415781
0.00415862
0.00415914
0.00415939
0.00415940
0.00415919
0.00415877
0.00415813
0.00415726
0.00415616
0.00415485
0.00415334
0.00415166
0.00414982
0.00414784
0.00414574
0.00414354
0.00414126
0.00413891
0.00413649
0.00413397
0.00413133
0.00412854
0.00412555
0.00412235
0.00411890
0.00411523
0.00411135
0.00410729
0.00410308
0.00409872
0.00409422
0.00408961
0.00408492
0.00408019
0.00407542
0.00407063
0.00406585
0.00406110
0.00405642
0.00405181
0.00404725
0.00404277
0.00403837
0.00403408
0.00402990
0.00402586
0.00402192
0.00401811
0.00401439
0.00401076
0.00400719
0.00400365
0.00400011
0.00399657
0.00399299
0.00398932
0.00398555
0.00398165
0.00397764
0.00397348
0.00396918
0.00396473
0.00396014
0.00395542
0.00395059
0.00394566
0.00394068
0.00393566
0.00393059
0.00392549
0.00392034
0.00391515
0.00390992
0.00390466
0.00389936
0.00389402
0.00388864
0.00388322
0.00387771
0.00387210
0.00386632
0.00386035
0.00385415
0.00384770
0.00384096
0.00383393
0.00382657
0.00381887
0.00381080
0.00380236
0.00379359
0.00378448
0.00377504
0.00376528
0.00375518
0.00374476
0.00373404
0.00372303
0.00371173
0.00370019
0.00368841
0.00367642
0.00366419
0.00365172
0.00363899
0.00362601
0.00361279
0.00359933
0.00358561
0.00357161
0.00355730
0.00354264
0.00352763
0.00351227
0.00349655
0.00348046
0.00346402
0.00344721
0.00343006
0.00341257
0.00339471
0.00337647
0.00335784
0.00333880
0.00331936
0.00329952
0.00327931
0.00325875
0.00323785
0.00321662
0.00319504
0.00317310
0.00315082
0.00312820
0.00310526
0.00308202
0.00305848
0.00303466
0.00301057
0.00298621
0.00296157
0.00293664
0.00291144
0.00288597
0.00286026
0.00283433
0.00280819
0.00278186
0.00275535
0.00272866
0.00270177
0.00267470
0.00264748
0.00262013
0.00259267
0.00256509
0.00253740
0.00250960
0.00248170
0.00245374
0.00242574
0.00239771
0.00236967
0.00234165
0.00231368
0.00228578
0.00225798
0.00223028
0.00220271
0.00217533
0.00214817
0.00212126
0.00209464
0.00206833
0.00204233
0.00201666
0.00199131
0.00196627
0.00194155
0.00191714
0.00189307
0.00186932
0.00184592
0.00182286
0.00180015
0.00177778
0.00175574
0.00173401
0.00171259
0.00169146
0.00167063
0.00165011
0.00162993
0.00161013
0.00159073
0.00157174
0.00155317
0.00153501
0.00151729
0.00150001
0.00148321
0.00146692
0.00145111
0.00143579
0.00142093
0.00140654
0.00139259
0.00137910
0.00136606
0.00135350
0.00134141
0.00132982
0.00131872
0.00130808
0.00129787
0.00128804
0.00127856
0.00126942
0.00126061
0.00125212
0.00124393
0.00123605
0.00122850
0.00122129
0.00121444
0.00120794
0.00120174
0.00119583
0.00119020
0.00118485
0.00117977
0.00117497
0.00117048
0.00116630
0.00116247
0.00115898
0.00115584
0.00115306
0.00115065
0.00114861
0.00114695
0.00114567
0.00114476
0.00114421
0.00114401
0.00114415
0.00114463
0.00114542
0.00114648
0.00114778
0.00114926
0.00115091
0.00115272
0.00115467
0.00115677
0.00115904
0.00116148
0.00116411
0.00116690
0.00116983
0.00117285
0.00117594
0.00117908
0.00118228
0.00118557
0.00118898
0.00119254
0.00119624
0.00120008
0.00120406
0.00120821
0.00121257
0.00121716
0.00122197
0.00122700
0.00123224
0.00123765
0.00124320
0.00124885
0.00125458
0.00126035
0.00126613
0.00127186
0.00127753
0.00128310
0.00128857
0.00129394
0.00129923
0.00130446
0.00130967
0.00131489
0.00132015
0.00132548
0.00133090
0.00133642
0.00134208
0.00134792
0.00135396
0.00136023
0.00136675
0.00137355
0.00138067
0.00138811
0.00139589
0.00140399
0.00141243
0.00142121
0.00143035
0.00143987
0.00144981
0.00146019
0.00147100
0.00148226
0.00149395
0.00150606
0.00151860
0.00153159
0.00154505
0.00155899
0.00157342
0.00158832
0.00160370
0.00161953
0.00163581
0.00165253
0.00166970
0.00168731
0.00170538
0.00172393
0.00174301
0.00176266
0.00178294
0.00180387
0.00182549
0.00184781
0.00187086
0.00189465
0.00191920
0.00194452
0.00197060
0.00199744
0.00202502
0.00205334
0.00208241
0.00211223
0.00214280
0.00217410
0.00220613
0.00223884
0.00227224
0.00230630
0.00234102
0.00237638
0.00241237
0.00244898
0.00248618
0.00252397
0.00256232
0.00260124
0.00264073
0.00268079
0.00272142
0.00276263
0.00280444
0.00284685
0.00288988
0.00293352
0.00297778
0.00302263
0.00306808
0.00311411
0.00316072
0.00320790
0.00325560
0.00330379
0.00335244
0.00340150
0.00345095
0.00350073
0.00355080
0.00360112
0.00365163
0.00370228
0.00375301
0.00380378
0.00385457
0.00390536
0.00395613
0.00400683
0.00405746
0.00410798
0.00415838
0.00420863
0.00425873
0.00430866
0.00435838
0.00440788
0.00445713
0.00450611
0.00455481
0.00460321
0.00465129
0.00469902
0.00474640
0.00479341
0.00484003
0.00488623
0.00493198
0.00497725
0.00502204
0.00506632
0.00511007
0.00515327
0.00519589
0.00523792
0.00527934
0.00532013
0.00536029
0.00539979
0.00543863
0.00547676
0.00551416
0.00555080
0.00558663
0.00562165
0.00565582
0.00568914
0.00572161
0.00575322
0.00578393
0.00581373
0.00584257
0.00587040
0.00589720
0.00592293
0.00594757
0.00597110
0.00599351
0.00601481
0.00603502
0.00605413
0.00607213
0.00608902
0.00610479
0.00611945
0.00613299
0.00614543
0.00615677
0.00616700
0.00617614
0.00618417
0.00619111
0.00619693
0.00620164
0.00620524
0.00620775
0.00620917
0.00620950
0.00620875
0.00620692
0.00620401
0.00620003
0.00619501
0.00618896
0.00618190
0.00617388
0.00616491
0.00615499
0.00614415
0.00613238
0.00611971
0.00610615
0.00609170
0.00607636
0.00606015
0.00604308
0.00602518
0.00600647
0.00598698
0.00596672
0.00594568
0.00592384
0.00590119
0.00587769
0.00585334
0.00582812
0.00580202
0.00577506
0.00574725
0.00571862
0.00568917
0.00565894
0.00562794
0.00559618
0.00556369
0.00553047
0.00549652
0.00546182
0.00542633
0.00539004
0.00535295
0.00531508
0.00527644
0.00523706
0.00519696
0.00515616
0.00511467
0.00507251
0.00502971
0.00498630
0.00494231
0.00489775
0.00485263
0.00480697
0.00476078
0.00471406
0.00466683
0.00461906
0.00457075
0.00452190
0.00447252
0.00442261
0.00437220
0.00432128
0.00426985
0.00421792
0.00416550
0.00411263
0.00405931
0.00400558
0.00395145
0.00389695
0.00384212
0.00378700
0.00373163
0.00367605
0.00362029
0.00356438
0.00350836
0.00345223
0.00339602
0.00333975
0.00328345
0.00322716
0.00317091
0.00311472
0.00305861
0.00300258
0.00294663
0.00289078
0.00283504
0.00277944
0.00272403
0.00266884
0.00261393
0.00255933
0.00250508
0.00245120
0.00239771
0.00234461
0.00229192
0.00223966
0.00218787
0.00213660
0.00208592
0.00203591
0.00198663
0.00193813
0.00189047
0.00184368
0.00179778
0.00175281
0.00170877
0.00166568
0.00162358
0.00158248
0.00154243
0.00150346
0.00146562
0.00142892
0.00139337
0.00135897
0.00132571
0.00129357
0.00126254
0.00123259
0.00120372
0.00117592
0.00114919
0.00112350
0.00109886
0.00107525
0.00105266
0.00103109
0.00101054
0.00099101
0.00097250
0.00095501
0.00093853
0.00092301
0.00090844
0.00089477
0.00088201
0.00087014
0.00085916
0.00084907
0.00083986
0.00083154
0.00082412
0.00081759
0.00081199
0.00080731
0.00080354
0.00080066
0.00079865
0.00079750
0.00079718
0.00079769
0.00079902
0.00080113
0.00080401
0.00080762
0.00081197
0.00081703
0.00082279
0.00082922
0.00083632
0.00084408
0.00085249
0.00086152
0.00087116
0.00088142
0.00089230
0.00090383
0.00091599
0.00092877
0.00094216
0.00095611
0.00097060
0.00098561
0.00100115
0.00101721
0.00103376
0.00105077
0.00106818
0.00108597
0.00110406
0.00112243
0.00114104
0.00115986
0.00117887
0.00119805
0.00121739
0.00123686
0.00125642
0.00127607
0.00129579
0.00131558
0.00133541
0.00135523
0.00137500
0.00139466
0.00141417
0.00143351
0.00145268
0.00147167
0.00149050
0.00150915
0.00152760
0.00154580
0.00156373
0.00158136
0.00159867
0.00161562
0.00163219
0.00164835
0.00166408
0.00167937
0.00169419
0.00170854
0.00172238
0.00173570
0.00174848
0.00176070
0.00177235
0.00178340
0.00179383
0.00180361
0.00181273
0.00182120
0.00182900
0.00183614
0.00184263
0.00184847
0.00185363
0.00185812
0.00186190
0.00186497
0.00186736
0.00186911
0.00187026
0.00187083
0.00187079
0.00187013
0.00186887
0.00186699
0.00186451
0.00186143
0.00185776
0.00185351
0.00184870
0.00184333
0.00183739
0.00183088
0.00182377
0.00181600
0.00180756
0.00179840
0.00178852
0.00177795
0.00176669
0.00175475
0.00174215
0.00172891
0.00171504
0.00170052
0.00168534
0.00166947
0.00165289
0.00163561
0.00161763
0.00159894
0.00157958
0.00155956
0.00153889
0.00151761
0.00149572
0.00147326
0.00145023
0.00142665
0.00140252
0.00137784
0.00135264
0.00132692
0.00130070
0.00127401
0.00124687
0.00121930
0.00119132
0.00116296
0.00113424
0.00110518
0.00107583
0.00104624
0.00101644
0.00098647
0.00095632
0.00092601
0.00089554
0.00086494
0.00083428
0.00080357
0.00077285
0.00074215
0.00071149
0.00068084
0.00065017
0.00061948
0.00058878
0.00055807
0.00052737
0.00049670
0.00046606
0.00043549
0.00040499
0.00037458
0.00034426
0.00031404
0.00028392
0.00025392
0.00022406
0.00019440
0.00016496
0.00013580
0.00010693
0.00007835
0.00005009
0.00002216
-0.00000544
-0.00003268
-0.00005955
-0.00008602
-0.00011205
-0.00013764
-0.00016277
-0.00018745
-0.00021169
-0.00023547
-0.00025878
-0.00028159
-0.00030389
-0.00032566
-0.00034687
-0.00036752
-0.00038760
-0.00040710
-0.00042602
-0.00044438
-0.00046217
-0.00047936
-0.00049595
-0.00051191
-0.00052723
-0.00054190
-0.00055594
-0.00056938
-0.00058226
-0.00059459
-0.00060641
-0.00061773
-0.00062857
-0.00063896
-0.00064890
-0.00065838
-0.00066738
-0.00067592
-0.00068400
-0.00069164
-0.00069881
-0.00070552
-0.00071173
-0.00071741
-0.00072254
-0.00072711
-0.00073110
-0.00073449
-0.00073729
-0.00073949
-0.00074110
-0.00074215
-0.00074266
-0.00074266
-0.00074216
-0.00074118
-0.00073971
-0.00073777
-0.00073539
-0.00073261
-0.00072952
-0.00072617
-0.00072265
-0.00071898
-0.00071521
-0.00071135
-0.00070742
-0.00070345
-0.00069944
-0.00069544
-0.00069147
-0.00068756
-0.00068371
-0.00067995
-0.00067630
-0.00067278
-0.00066940
-0.00066616
-0.00066304
-0.00066004
-0.00065716
-0.00065440
-0.00065179
-0.00064933
-0.00064704
-0.00064497
-0.00064315
-0.00064161
-0.00064034
-0.00063936
-0.00063866
-0.00063828
-0.00063824
-0.00063857
-0.00063928
-0.00064040
-0.00064196
-0.00064399
-0.00064652
-0.00064958
-0.00065319
-0.00065741
-0.00066229
-0.00066786
-0.00067415
-0.00068114
-0.00068885
-0.00069725
-0.00070638
-0.00071626
-0.00072691
-0.00073840
-0.00075073
-0.00076395
-0.00077807
-0.00079311
-0.00080907
-0.00082592
-0.00084364
-0.00086221
-0.00088163
-0.00090192
-0.00092308
-0.00094514
-0.00096811
-0.00099200
-0.00101684
-0.00104262
-0.00106936
-0.00109708
-0.00112578
-0.00115550
-0.00118626
-0.00121805
-0.00125090
-0.00128478
-0.00131968
-0.00135558
-0.00139244
-0.00143025
-0.00146898
-0.00150860
-0.00154911
-0.00159046
-0.00163262
-0.00167557
-0.00171928
-0.00176374
-0.00180897
-0.00185494
-0.00190168
-0.00194918
-0.00199743
-0.00204643
-0.00209615
-0.00214657
-0.00219768
-0.00224947
-0.00230193
-0.00235504
-0.00240880
-0.00246323
-0.00251833
-0.00257412
-0.00263060
-0.00268777
-0.00274560
-0.00280408
-0.00286316
-0.00292281
-0.00298300
-0.00304371
-0.00310491
-0.00316656
-0.00322865
-0.00329115
-0.00335404
-0.00341731
-0.00348097
-0.00354503
-0.00360948
-0.00367430
-0.00373948
-0.00380500
-0.00387085
-0.00393700
-0.00400340
-0.00407004
-0.00413687
-0.00420385
-0.00427094
-0.00433811
-0.00440536
-0.00447270
-0.00454012
-0.00460758
-0.00467504
-0.00474246
-0.00480982
-0.00487708
-0.00494423
-0.00501122
-0.00507798
-0.00514448
-0.00521064
-0.00527645
-0.00534187
-0.00540688
-0.00547149
-0.00553568
-0.00559943
-0.00566270
-0.00572547
-0.00578770
-0.00584938
-0.00591047
-0.00597097
-0.00603084
-0.00609007
-0.00614865
-0.00620654
-0.00626371
-0.00632013
-0.00637574
-0.00643050
-0.00648440
-0.00653738
-0.00658942
-0.00664050
-0.00669062
-0.00673977
-0.00678794
-0.00683512
-0.00688132
-0.00692656
-0.00697086
-0.00701426
-0.00705677
-0.00709838
-0.00713906
-0.00717881
-0.00721759
-0.00725540
-0.00729218
-0.00732786
-0.00736241
-0.00739580
-0.00742800
-0.00745902
-0.00748885
-0.00751751
-0.00754502
-0.00757140
-0.00759668
-0.00762087
-0.00764398
-0.00766601
-0.00768696
-0.00770681
-0.00772557
-0.00774321
-0.00775975
-0.00777520
-0.00778957
-0.00780285
-0.00781503
-0.00782610
-0.00783606
-0.00784490
-0.00785264
-0.00785928
-0.00786483
-0.00786930
-0.00787274
-0.00787515
-0.00787656
-0.00787696
-0.00787631
-0.00787460
-0.00787185
-0.00786806
-0.00786324
-0.00785743
-0.00785062
-0.00784286
-0.00783419
-0.00782462
-0.00781415
-0.00780279
-0.00779051
-0.00777733
-0.00776326
-0.00774834
-0.00773262
-0.00771614
-0.00769894
-0.00768103
-0.00766242
-0.00764314
-0.00762322
-0.00760266
-0.00758149
-0.00755971
-0.00753735
-0.00751444
-0.00749102
-0.00746709
-0.00744265
-0.00741767
-0.00739212
-0.00736597
-0.00733918
-0.00731172
-0.00728360
-0.00725481
-0.00722538
-0.00719534
-0.00716472
-0.00713355
-0.00710184
-0.00706958
-0.00703680
-0.00700349
-0.00696970
-0.00693546
-0.00690080
-0.00686575
-0.00683032
-0.00679451
-0.00675833
-0.00672181
-0.00668496
-0.00664784
-0.00661046
-0.00657285
-0.00653501
-0.00649693
-0.00645859
-0.00642000
-0.00638116
-0.00634205
-0.00630268
-0.00626306
-0.00622322
-0.00618314
-0.00614286
-0.00610236
-0.00606164
-0.00602073
-0.00597961
-0.00593829
-0.00589677
-0.00585501
-0.00581301
-0.00577076
-0.00572826
-0.00568551
-0.00564253
-0.00559932
-0.00555590
-0.00551232
-0.00546860
-0.00542479
-0.00538090
-0.00533697
-0.00529301
-0.00524905
-0.00520510
-0.00516116
-0.00511725
-0.00507337
-0.00502953
-0.00498573
-0.00494199
-0.00489831
-0.00485468
-0.00481107
-0.00476747
-0.00472385
-0.00468019
-0.00463648
-0.00459273
-0.00454892
-0.00450507
-0.00446119
-0.00441728
-0.00437334
-0.00432938
-0.00428536
-0.00424125
-0.00419702
-0.00415266
-0.00410819
-0.00406362
-0.00401899
-0.00397431
-0.00392960
-0.00388487
-0.00384014
-0.00379545
-0.00375079
-0.00370615
-0.00366150
-0.00361677
-0.00357196
-0.00352702
-0.00348194
-0.00343670
-0.00339130
-0.00334573
-0.00329997
-0.00325403
-0.00320790
-0.00316155
-0.00311498
-0.00306819
-0.00302119
-0.00297396
-0.00292649
-0.00287879
-0.00283086
-0.00278271
-0.00273435
-0.00268577
-0.00263696
-0.00258794
-0.00253871
-0.00248935
-0.00243988
-0.00239036
-0.00234079
-0.00229119
-0.00224157
-0.00219194
-0.00214233
-0.00209273
-0.00204314
-0.00199354
-0.00194392
-0.00189426
-0.00184453
-0.00179475
-0.00174493
-0.00169511
-0.00164532
-0.00159559
-0.00154594
-0.00149638
-0.00144692
-0.00139759
-0.00134841
-0.00129939
-0.00125056
-0.00120194
-0.00115351
-0.00110527
-0.00105722
-0.00100940
-0.00096182
-0.00091451
-0.00086747
-0.00082071
-0.00077422
-0.00072802
-0.00068211
-0.00063648
-0.00059113
-0.00054605
-0.00050123
-0.00045665
-0.00041236
-0.00036837
-0.00032471
-0.00028139
-0.00023841
-0.00019575
-0.00015342
-0.00011143
-0.00006979
-0.00002851
0.00001242
0.00005298
0.00009317
0.00013297
0.00017238
0.00021143
0.00025010
0.00028841
0.00032631
0.00036379
0.00040083
0.00043744
0.00047362
0.00050936
0.00054469
0.00057962
0.00061418
0.00064838
0.00068220
0.00071564
0.00074869
0.00078137
0.00081366
0.00084555
0.00087706
0.00090819
0.00093895
0.00096936
0.00099942
0.00102910
0.00105836
0.00108715
0.00111545
0.00114322
0.00117043
0.00119706
0.00122308
0.00124848
0.00127326
0.00129742
0.00132095
0.00134387
0.00136618
0.00138790
0.00140899
0.00142944
0.00144923
0.00146836
0.00148683
0.00150465
0.00152180
0.00153825
0.00155398
0.00156897
0.00158320
0.00159669
0.00160945
0.00162151
0.00163289
0.00164362
0.00165370
0.00166314
0.00167193
0.00168005
0.00168750
0.00169430
0.00170045
0.00170593
0.00171071
0.00171479
0.00171817
0.00172084
0.00172282
0.00172413
0.00172476
0.00172469
0.00172393
0.00172243
0.00172018
0.00171713
0.00171329
0.00170867
0.00170327
0.00169708
0.00169006
0.00168220
0.00167347
0.00166388
0.00165340
0.00164203
0.00162976
0.00161656
0.00160244
0.00158740
0.00157143
0.00155459
0.00153689
0.00151837
0.00149906
0.00147899
0.00145817
0.00143661
0.00141430
0.00139124
0.00136740
0.00134278
0.00131736
0.00129113
0.00126409
0.00123622
0.00120749
0.00117790
0.00114744
0.00111613
0.00108396
0.00105094
0.00101706
0.00098231
0.00094669
0.00091021
0.00087286
0.00083466
0.00079560
0.00075572
0.00071506
0.00067363
0.00063147
0.00058860
0.00054502
0.00050076
0.00045582
0.00041019
0.00036390
0.00031697
0.00026943
0.00022130
0.00017263
0.00012345
0.00007380
0.00002370
-0.00002683
-0.00007778
-0.00012914
-0.00018090
-0.00023302
-0.00028547
-0.00033824
-0.00039131
-0.00044466
-0.00049826
-0.00055210
-0.00060613
-0.00066035
-0.00071474
-0.00076927
-0.00082391
-0.00087863
-0.00093338
-0.00098810
-0.00104276
-0.00109730
-0.00115169
-0.00120591
-0.00125988
-0.00131354
-0.00136681
-0.00141966
-0.00147205
-0.00152397
-0.00157539
-0.00162630
-0.00167667
-0.00172652
-0.00177584
-0.00182462
-0.00187284
-0.00192048
-0.00196752
-0.00201395
-0.00205976
-0.00210492
-0.00214943
-0.00219327
-0.00223644
-0.00227896
-0.00232082
-0.00236200
-0.00240250
-0.00244230
-0.00248137
-0.00251970
-0.00255726
-0.00259400
-0.00262987
-0.00266482
-0.00269885
-0.00273194
-0.00276414
-0.00279548
-0.00282597
-0.00285561
-0.00288438
-0.00291226
-0.00293925
-0.00296533
-0.00299052
-0.00301485
-0.00303833
-0.00306094
-0.00308266
-0.00310351
-0.00312348
-0.00314259
-0.00316087
-0.00317833
-0.00319497
-0.00321080
-0.00322586
-0.00324014
-0.00325366
-0.00326643
-0.00327845
-0.00328971
-0.00330024
-0.00331004
-0.00331909
-0.00332741
-0.00333497
-0.00334178
-0.00334782
-0.00335309
-0.00335758
-0.00336132
-0.00336429
-0.00336652
-0.00336800
-0.00336876
-0.00336883
-0.00336823
-0.00336698
-0.00336510
-0.00336261
-0.00335953
-0.00335586
-0.00335161
-0.00334681
-0.00334149
-0.00333569
-0.00332942
-0.00332274
-0.00331567
-0.00330825
-0.00330050
-0.00329244
-0.00328407
-0.00327541
-0.00326648
-0.00325732
-0.00324793
-0.00323832
-0.00322850
-0.00321850
-0.00320833
-0.00319796
-0.00318739
-0.00317658
-0.00316552
-0.00315422
-0.00314272
-0.00313105
-0.00311922
-0.00310725
-0.00309513
-0.00308285
-0.00307043
-0.00305784
-0.00304509
-0.00303221
-0.00301923
-0.00300617
-0.00299307
-0.00297992
-0.00296672
-0.00295349
-0.00294022
-0.00292695
-0.00291367
-0.00290040
-0.00288716
-0.00287393
-0.00286072
-0.00284753
-0.00283438
-0.00282126
-0.00280821
-0.00279526
-0.00278244
-0.00276981
-0.00275741
-0.00274527
-0.00273343
-0.00272186
-0.00271059
-0.00269961
-0.00268893
-0.00267857
-0.00266850
-0.00265873
-0.00264923
-0.00264002
-0.00263113
-0.00262257
-0.00261435
-0.00260648
-0.00259899
-0.00259188
-0.00258516
-0.00257884
-0.00257289
-0.00256731
-0.00256211
-0.00255726
-0.00255278
-0.00254865
-0.00254487
-0.00254146
-0.00253841
-0.00253573
-0.00253341
-0.00253145
-0.00252986
-0.00252865
-0.00252784
-0.00252738
-0.00252725
-0.00252741
-0.00252782
-0.00252843
-0.00252923
-0.00253018
-0.00253128
-0.00253255
-0.00253401
-0.00253567
-0.00253755
-0.00253963
-0.00254189
-0.00254434
-0.00254699
-0.00254988
-0.00255300
-0.00255640
-0.00256008
-0.00256404
-0.00256832
-0.00257291
-0.00257783
-0.00258306
-0.00258860
-0.00259444
-0.00260057
-0.00260698
-0.00261367
-0.00262064
-0.00262795
-0.00263562
-0.00264367
-0.00265208
-0.00266082
-0.00266989
-0.00267926
-0.00268892
-0.00269885
-0.00270904
-0.00271947
-0.00273013
-0.00274100
-0.00275206
-0.00276330
-0.00277472
-0.00278632
-0.00279809
-0.00281003
-0.00282215
-0.00283446
-0.00284699
-0.00285973
-0.00287270
-0.00288589
-0.00289927
-0.00291282
-0.00292650
-0.00294030
-0.00295421
-0.00296819
-0.00298223
-0.00299634
-0.00301047
-0.00302460
-0.00303868
-0.00305268
-0.00306660
-0.00308043
-0.00309414
-0.00310774
-0.00312123
-0.00313459
-0.00314780
-0.00316084
-0.00317369
-0.00318634
-0.00319878
-0.00321100
-0.00322298
-0.00323466
-0.00324603
-0.00325707
-0.00326778
-0.00327815
-0.00328817
-0.00329783
-0.00330710
-0.00331600
-0.00332450
-0.00333259
-0.00334025
-0.00334746
-0.00335419
-0.00336043
-0.00336615
-0.00337134
-0.00337601
-0.00338013
-0.00338369
-0.00338665
-0.00338897
-0.00339061
-0.00339157
-0.00339182
-0.00339134
-0.00339009
-0.00338804
-0.00338520
-0.00338156
-0.00337712
-0.00337189
-0.00336585
-0.00335900
-0.00335134
-0.00334286
-0.00333356
-0.00332345
-0.00331252
-0.00330077
-0.00328821
-0.00327484
-0.00326066
-0.00324567
-0.00322983
-0.00321311
-0.00319547
-0.00317691
-0.00315742
-0.00313703
-0.00311577
-0.00309368
-0.00307078
-0.00304709
-0.00302263
-0.00299742
-0.00297146
-0.00294477
-0.00291733
-0.00288913
-0.00286017
-0.00283041
-0.00279982
-0.00276841
-0.00273613
-0.00270301
-0.00266904
-0.00263425
-0.00259865
-0.00256226
-0.00252509
-0.00248713
-0.00244839
-0.00240887
-0.00236854
-0.00232739
-0.00228543
-0.00224264
-0.00219906
-0.00215468
-0.00210953
-0.00206360
-0.00201689
-0.00196939
-0.00192108
-0.00187193
-0.00182195
-0.00177113
-0.00171950
-0.00166704
-0.00161377
-0.00155968
-0.00150479
-0.00144909
-0.00139260
-0.00133534
-0.00127733
-0.00121858
-0.00115908
-0.00109883
-0.00103787
-0.00097620
-0.00091386
-0.00085084
-0.00078718
-0.00072289
-0.00065796
-0.00059240
-0.00052619
-0.00045935
-0.00039188
-0.00032382
-0.00025520
-0.00018603
-0.00011633
-0.00004612
0.00002454
0.00009560
0.00016699
0.00023868
0.00031064
0.00038286
0.00045533
0.00052804
0.00060097
0.00067411
0.00074740
0.00082081
0.00089428
0.00096776
0.00104122
0.00111462
0.00118791
0.00126106
0.00133402
0.00140674
0.00147917
0.00155125
0.00162294
0.00169419
0.00176498
0.00183525
0.00190496
0.00197407
0.00204258
0.00211050
0.00217781
0.00224449
0.00231050
0.00237581
0.00244038
0.00250420
0.00256724
0.00262949
0.00269090
0.00275147
0.00281116
0.00286994
0.00292778
0.00298468
0.00304062
0.00309557
0.00314952
0.00320243
0.00325430
0.00330511
0.00335485
0.00340350
0.00345103
0.00349741
0.00354262
0.00358663
0.00362944
0.00367102
0.00371135
0.00375041
0.00378817
0.00382458
0.00385965
0.00389336
0.00392572
0.00395672
0.00398636
0.00401466
0.00404165
0.00406736
0.00409182
0.00411502
0.00413697
0.00415766
0.00417708
0.00419520
0.00421202
0.00422755
0.00424181
0.00425481
0.00426657
0.00427709
0.00428636
0.00429439
0.00430115
0.00430665
0.00431087
0.00431382
0.00431553
0.00431602
0.00431530
0.00431338
0.00431026
0.00430594
0.00430044
0.00429374
0.00428584
0.00427678
0.00426655
0.00425519
0.00424272
0.00422918
0.00421462
0.00419904
0.00418248
0.00416494
0.00414645
0.00412701
0.00410666
0.00408541
0.00406328
0.00404030
0.00401648
0.00399186
0.00396646
0.00394029
0.00391338
0.00388576
0.00385744
0.00382846
0.00379883
0.00376858
0.00373775
0.00370636
0.00367442
0.00364195
0.00360896
0.00357548
0.00354152
0.00350712
0.00347228
0.00343703
0.00340141
0.00336542
0.00332909
0.00329245
0.00325553
0.00321836
0.00318100
0.00314347
0.00310583
0.00306811
0.00303035
0.00299261
0.00295491
0.00291727
0.00287968
0.00284218
0.00280478
0.00276750
0.00273035
0.00269336
0.00265654
0.00261992
0.00258350
0.00254729
0.00251132
0.00247561
0.00244017
0.00240503
0.00237024
0.00233584
0.00230189
0.00226844
0.00223552
0.00220317
0.00217140
0.00214026
0.00210980
0.00208010
0.00205124
0.00202326
0.00199618
0.00197003
0.00194481
0.00192055
0.00189725
0.00187495
0.00185367
0.00183342
0.00181423
0.00179611
0.00177906
0.00176310
0.00174827
0.00173459
0.00172205
0.00171067
0.00170043
0.00169132
0.00168335
0.00167652
0.00167085
0.00166635
0.00166302
0.00166085
0.00165985
0.00165999
0.00166130
0.00166377
0.00166741
0.00167223
0.00167821
0.00168538
0.00169374
0.00170331
0.00171407
0.00172600
0.00173907
0.00175327
0.00176858
0.00178499
0.00180247
0.00182099
0.00184052
0.00186102
0.00188247
0.00190484
0.00192807
0.00195214
0.00197702
0.00200269
0.00202913
0.00205634
0.00208429
0.00211299
0.00214243
0.00217259
0.00220346
0.00223501
0.00226723
0.00230009
0.00233359
0.00236769
0.00240236
0.00243752
0.00247312
0.00250911
0.00254547
0.00258216
0.00261916
0.00265646
0.00269404
0.00273187
0.00276993
0.00280820
0.00284663
0.00288520
0.00292388
0.00296264
0.00300145
0.00304024
0.00307897
0.00311762
0.00315617
0.00319461
0.00323291
0.00327103
0.00330896
0.00334669
0.00338419
0.00342146
0.00345848
0.00349524
0.00353172
0.00356790
0.00360376
0.00363931
0.00367451
0.00370931
0.00374369
0.00377763
0.00381113
0.00384416
0.00387671
0.00390879
0.00394038
0.00397146
0.00400203
0.00403206
0.00406154
0.00409045
0.00411877
0.00414650
0.00417363
0.00420018
0.00422613
0.00425144
0.00427611
0.00430010
0.00432344
0.00434612
0.00436816
0.00438953
0.00441023
0.00443022
0.00444949
0.00446803
0.00448586
0.00450299
0.00451943
0.00453523
0.00455041
0.00456496
0.00457886
0.00459209
0.00460462
0.00461644
0.00462754
0.00463790
0.00464754
0.00465646
0.00466463
0.00467203
0.00467863
0.00468445
0.00468947
0.00469371
0.00469717
0.00469983
0.00470168
0.00470271
0.00470293
0.00470233
0.00470094
0.00469881
0.00469599
0.00469257
0.00468857
0.00468401
0.00467893
0.00467335
0.00466731
0.00466084
0.00465398
0.00464678
0.00463928
0.00463151
0.00462349
0.00461524
0.00460680
0.00459817
0.00458937
0.00458039
0.00457123
0.00456189
0.00455238
0.00454270
0.00453284
0.00452281
0.00451262
0.00450229
0.00449187
0.00448138
0.00447083
0.00446023
0.00444957
0.00443885
0.00442808
0.00441726
0.00440639
0.00439549
0.00438457
0.00437360
0.00436259
0.00435153
0.00434042
0.00432926
0.00431804
0.00430672
0.00429530
0.00428378
0.00427218
0.00426049
0.00424872
0.00423685
0.00422485
0.00421273
0.00420049
0.00418815
0.00417571
0.00416317
0.00415052
0.00413775
0.00412484
0.00411178
0.00409860
0.00408529
0.00407188
0.00405839
0.00404480
0.00403109
0.00401723
0.00400322
0.00398906
0.00397474
0.00396028
0.00394567
0.00393092
0.00391605
0.00390104
0.00388588
0.00387055
0.00385501
0.00383925
0.00382327
0.00380704
0.00379057
0.00377383
0.00375684
0.00373958
0.00372204
0.00370424
0.00368619
0.00366790
0.00364938
0.00363061
0.00361159
0.00359234
0.00357285
0.00355313
0.00353317
0.00351296
0.00349251
0.00347181
0.00345085
0.00342962
0.00340812
0.00338636
0.00336435
0.00334209
0.00331959
0.00329684
0.00327384
0.00325062
0.00322717
0.00320350
0.00317956
0.00315534
0.00313081
0.00310597
0.00308079
0.00305525
0.00302933
0.00300304
0.00297635
0.00294927
0.00292183
0.00289402
0.00286586
0.00283731
0.00280834
0.00277891
0.00274901
0.00271865
0.00268787
0.00265669
0.00262512
0.00259316
0.00256080
0.00252805
0.00249493
0.00246142
0.00242755
0.00239332
0.00235874
0.00232386
0.00228871
0.00225336
0.00221786
0.00218222
0.00214646
0.00211057
0.00207455
0.00203840
0.00200212
0.00196574
0.00192926
0.00189273
0.00185617
0.00181964
0.00178315
0.00174670
0.00171031
0.00167398
0.00163774
0.00160158
0.00156550
0.00152950
0.00149359
0.00145778
0.00142208
0.00138649
0.00135104
0.00131573
0.00128057
0.00124560
0.00121084
0.00117635
0.00114214
0.00110825
0.00107468
0.00104147
0.00100863
0.00097620
0.00094420
0.00091264
0.00088156
0.00085097
0.00082088
0.00079130
0.00076224
0.00073372
0.00070575
0.00067834
0.00065152
0.00062531
0.00059976
0.00057495
0.00055090
0.00052765
0.00050519
0.00048355
0.00046273
0.00044277
0.00042371
0.00040561
0.00038851
0.00037245
0.00035743
0.00034347
0.00033058
0.00031878
0.00030804
0.00029836
0.00028972
0.00028208
0.00027545
0.00026981
0.00026519
0.00026162
0.00025911
0.00025768
0.00025732
0.00025802
0.00025977
0.00026258
0.00026643
0.00027132
0.00027724
0.00028416
0.00029208
0.00030098
0.00031086
0.00032171
0.00033351
0.00034625
0.00035988
0.00037438
0.00038971
0.00040583
0.00042270
0.00044027
0.00045851
0.00047737
0.00049680
0.00051676
0.00053723
0.00055823
0.00057978
0.00060188
0.00062448
0.00064756
0.00067109
0.00069503
0.00071937
0.00074406
0.00076907
0.00079433
0.00081981
0.00084548
0.00087130
0.00089723
0.00092324
0.00094928
0.00097535
0.00100142
0.00102746
0.00105347
0.00107938
0.00110516
0.00113075
0.00115613
0.00118127
0.00120615
0.00123078
0.00125515
0.00127923
0.00130302
0.00132649
0.00134965
0.00137249
0.00139502
0.00141727
0.00143924
0.00146096
0.00148242
0.00150362
0.00152456
0.00154523
0.00156561
0.00158573
0.00160560
0.00162524
0.00164468
0.00166390
0.00168291
0.00170169
0.00172021
0.00173845
0.00175638
0.00177398
0.00179126
0.00180820
0.00182480
0.00184101
0.00185679
0.00187212
0.00188698
0.00190138
0.00191534
0.00192885
0.00194192
0.00195454
0.00196668
0.00197832
0.00198944
0.00200004
0.00201013
0.00201974
0.00202886
0.00203751
0.00204569
0.00205341
0.00206065
0.00206740
0.00207364
0.00207935
0.00208451
0.00208915
0.00209324
0.00209682
0.00209989
0.00210247
0.00210459
0.00210624
0.00210743
0.00210815
0.00210840
0.00210819
0.00210750
0.00210637
0.00210481
0.00210282
0.00210039
0.00209754
0.00209427
0.00209057
0.00208643
0.00208186
0.00207683
0.00207135
0.00206539
0.00205895
0.00205203
0.00204464
0.00203682
0.00202858
0.00201995
0.00201092
0.00200151
0.00199172
0.00198158
0.00197109
0.00196027
0.00194914
0.00193774
0.00192608
0.00191418
0.00190204
0.00188966
0.00187705
0.00186419
0.00185112
0.00183782
0.00182431
0.00181058
0.00179662
0.00178241
0.00176797
0.00175327
0.00173829
0.00172301
0.00170742
0.00169152
0.00167533
0.00165886
0.00164215
0.00162520
0.00160803
0.00159066
0.00157309
0.00155536
0.00153749
0.00151951
0.00150143
0.00148328
0.00146507
0.00144682
0.00142852
0.00141018
0.00139178
0.00137333
0.00135478
0.00133614
0.00131740
0.00129857
0.00127966
0.00126069
0.00124169
0.00122266
0.00120363
0.00118461
0.00116564
0.00114675
0.00112798
0.00110936
0.00109092
0.00107266
0.00105459
0.00103671
0.00101901
0.00100149
0.00098413
0.00096692
0.00094988
0.00093301
0.00091632
0.00089979
0.00088343
0.00086724
0.00085121
0.00083534
0.00081961
0.00080404
0.00078861
0.00077333
0.00075818
0.00074316
0.00072826
0.00071348
0.00069883
0.00068430
0.00066990
0.00065564
0.00064155
0.00062764
0.00061394
0.00060048
0.00058731
0.00057449
0.00056203
0.00054997
0.00053833
0.00052711
0.00051635
0.00050604
0.00049622
0.00048686
0.00047798
0.00046958
0.00046163
0.00045414
0.00044707
0.00044041
0.00043413
0.00042822
0.00042267
0.00041745
0.00041256
0.00040799
0.00040373
0.00039980
0.00039618
0.00039288
0.00038987
0.00038717
0.00038475
0.00038262
0.00038074
0.00037910
0.00037768
0.00037646
0.00037541
0.00037453
0.00037381
0.00037324
0.00037283
0.00037258
0.00037252
0.00037264
0.00037292
0.00037335
0.00037391
0.00037461
0.00037543
0.00037634
0.00037731
0.00037832
0.00037933
0.00038034
0.00038134
0.00038232
0.00038328
0.00038422
0.00038514
0.00038603
0.00038689
0.00038771
0.00038847
0.00038919
0.00038987
0.00039054
0.00039120
0.00039189
0.00039260
0.00039338
0.00039423
0.00039519
0.00039625
0.00039742
0.00039869
0.00040003
0.00040143
0.00040286
0.00040429
0.00040572
0.00040713
0.00040852
0.00040988
0.00041121
0.00041254
0.00041387
0.00041519
0.00041650
0.00041778
0.00041905
0.00042031
0.00042155
0.00042277
0.00042397
0.00042512
0.00042622
0.00042727
0.00042827
0.00042923
0.00043016
0.00043106
0.00043192
0.00043273
0.00043347
0.00043415
0.00043476
0.00043529
0.00043576
0.00043616
0.00043650
0.00043680
0.00043707
0.00043731
0.00043751
0.00043763
0.00043766
0.00043758
0.00043737
0.00043701
0.00043649
0.00043580
0.00043493
0.00043386
0.00043257
0.00043102
0.00042919
0.00042709
0.00042470
0.00042204
0.00041908
0.00041582
0.00041226
0.00040843
0.00040435
0.00040004
0.00039549
0.00039070
0.00038567
0.00038039
0.00037486
0.00036907
0.00036301
0.00035669
0.00035011
0.00034325
0.00033611
0.00032868
0.00032097
0.00031298
0.00030474
0.00029626
0.00028757
0.00027869
0.00026963
0.00026037
0.00025093
0.00024129
0.00023144
0.00022139
0.00021110
0.00020058
0.00018981
0.00017879
0.00016751
0.00015600
0.00014426
0.00013230
0.00012013
0.00010774
0.00009515
0.00008236
0.00006939
0.00005625
0.00004293
0.00002944
0.00001575
0.00000187
-0.00001220
-0.00002646
-0.00004091
-0.00005554
-0.00007035
-0.00008534
-0.00010051
-0.00011584
-0.00013134
-0.00014698
-0.00016277
-0.00017869
-0.00019473
-0.00021087
-0.00022710
-0.00024340
-0.00025975
-0.00027613
-0.00029252
-0.00030892
-0.00032533
-0.00034172
-0.00035806
-0.00037432
-0.00039044
-0.00040639
-0.00042211
-0.00043756
-0.00045273
-0.00046760
-0.00048214
-0.00049634
-0.00051015
-0.00052355
-0.00053652
-0.00054904
-0.00056113
-0.00057276
-0.00058394
-0.00059465
-0.00060489
-0.00061465
-0.00062396
-0.00063281
-0.00064120
-0.00064914
-0.00065659
-0.00066355
-0.00066999
-0.00067592
-0.00068133
-0.00068623
-0.00069064
-0.00069460
-0.00069812
-0.00070125
-0.00070399
-0.00070635
-0.00070830
-0.00070981
-0.00071087
-0.00071146
-0.00071160
-0.00071126
-0.00071045
-0.00070914
-0.00070733
-0.00070502
-0.00070220
-0.00069887
-0.00069501
-0.00069063
-0.00068573
-0.00068033
-0.00067439
-0.00066792
-0.00066092
-0.00065339
-0.00064535
-0.00063682
-0.00062783
-0.00061837
-0.00060845
-0.00059803
-0.00058714
-0.00057579
-0.00056401
-0.00055182
-0.00053921
-0.00052616
-0.00051266
-0.00049870
-0.00048426
-0.00046936
-0.00045401
-0.00043820
-0.00042196
-0.00040529
-0.00038820
-0.00037069
-0.00035276
-0.00033441
-0.00031566
-0.00029652
-0.00027702
-0.00025720
-0.00023708
-0.00021668
-0.00019604
-0.00017517
-0.00015410
-0.00013285
-0.00011146
-0.00008996
-0.00006836
-0.00004670
-0.00002501
-0.00000331
0.00001839
0.00004006
0.00006168
0.00008325
0.00010472
0.00012609
0.00014736
0.00016857
0.00018971
0.00021080
0.00023179
0.00025268
0.00027344
0.00029405
0.00031449
0.00033470
0.00035465
0.00037429
0.00039359
0.00041249
0.00043099
0.00044902
0.00046656
0.00048355
0.00049996
0.00051576
0.00053091
0.00054542
0.00055929
0.00057252
0.00058509
0.00059701
0.00060828
0.00061888
0.00062879
0.00063799
0.00064648
0.00065423
0.00066124
0.00066748
0.00067296
0.00067770
0.00068172
0.00068501
0.00068759
0.00068942
0.00069050
0.00069082
0.00069036
0.00068913
0.00068716
0.00068446
0.00068103
0.00067686
0.00067194
0.00066624
0.00065976
0.00065250
0.00064445
0.00063560
0.00062595
0.00061548
0.00060419
0.00059209
0.00057918
0.00056544
0.00055086
0.00053543
0.00051916
0.00050207
0.00048419
0.00046556
0.00044621
0.00042620
0.00040557
0.00038437
0.00036262
0.00034035
0.00031756
0.00029426
0.00027044
0.00024614
0.00022138
0.00019617
0.00017055
0.00014453
0.00011814
0.00009141
0.00006440
0.00003714
0.00000967
-0.00001797
-0.00004577
-0.00007368
-0.00010167
-0.00012971
-0.00015777
-0.00018582
-0.00021385
-0.00024182
-0.00026970
-0.00029745
-0.00032501
-0.00035236
-0.00037945
-0.00040625
-0.00043272
-0.00045881
-0.00048446
-0.00050961
-0.00053426
-0.00055837
-0.00058197
-0.00060504
-0.00062759
-0.00064960
-0.00067107
-0.00069199
-0.00071235
-0.00073214
-0.00075132
-0.00076990
-0.00078788
-0.00080530
-0.00082218
-0.00083855
-0.00085438
-0.00086968
-0.00088444
-0.00089862
-0.00091220
-0.00092513
-0.00093737
-0.00094888
-0.00095965
-0.00096967
-0.00097895
-0.00098750
-0.00099534
-0.00100249
-0.00100896
-0.00101474
-0.00101980
-0.00102412
-0.00102767
-0.00103043
-0.00103239
-0.00103353
-0.00103388
-0.00103342
-0.00103218
-0.00103014
-0.00102731
-0.00102370
-0.00101931
-0.00101413
-0.00100814
-0.00100134
-0.00099374
-0.00098536
-0.00097621
-0.00096632
-0.00095575
-0.00094452
-0.00093268
-0.00092024
-0.00090723
-0.00089361
-0.00087939
-0.00086454
-0.00084908
-0.00083303
-0.00081638
-0.00079911
-0.00078119
-0.00076261
-0.00074340
-0.00072356
-0.00070312
-0.00068209
-0.00066049
-0.00063831
-0.00061557
-0.00059226
-0.00056838
-0.00054394
-0.00051896
-0.00049349
-0.00046759
-0.00044129
-0.00041464
-0.00038768
-0.00036039
-0.00033279
-0.00030489
-0.00027670
-0.00024828
-0.00021967
-0.00019095
-0.00016218
-0.00013341
-0.00010465
-0.00007592
-0.00004724
-0.00001866
0.00000979
0.00003803
0.00006601
0.00009369
0.00012104
0.00014802
0.00017460
0.00020072
0.00022638
0.00025154
0.00027618
0.00030028
0.00032379
0.00034668
0.00036890
0.00039040
0.00041114
0.00043108
0.00045015
0.00046833
0.00048557
0.00050184
0.00051712
0.00053141
0.00054466
0.00055687
0.00056801
0.00057807
0.00058705
0.00059497
0.00060181
0.00060756
0.00061221
0.00061575
0.00061813
0.00061932
0.00061926
0.00061793
0.00061534
0.00061151
0.00060641
0.00060004
0.00059240
0.00058347
0.00057327
0.00056179
0.00054902
0.00053493
0.00051953
0.00050281
0.00048475
0.00046533
0.00044453
0.00042234
0.00039873
0.00037372
0.00034732
0.00031951
0.00029030
0.00025968
0.00022763
0.00019418
0.00015932
0.00012307
0.00008541
0.00004638
0.00000601
-0.00003568
-0.00007867
-0.00012296
-0.00016854
-0.00021537
-0.00026343
-0.00031269
-0.00036311
-0.00041464
-0.00046722
-0.00052081
-0.00057539
-0.00063091
-0.00068735
-0.00074467
-0.00080284
-0.00086181
-0.00092152
-0.00098188
-0.00104284
-0.00110434
-0.00116635
-0.00122885
-0.00129177
-0.00135510
-0.00141880
-0.00148285
-0.00154721
-0.00161183
-0.00167662
-0.00174153
-0.00180648
-0.00187141
-0.00193626
-0.00200099
-0.00206560
-0.00213004
-0.00219427
-0.00225823
-0.00232189
-0.00238519
-0.00244813
-0.00251064
-0.00257269
-0.00263420
-0.00269511
-0.00275535
-0.00281489
-0.00287366
-0.00293164
-0.00298879
-0.00304509
-0.00310053
-0.00315505
-0.00320863
-0.00326122
-0.00331279
-0.00336335
-0.00341288
-0.00346138
-0.00350884
-0.00355521
-0.00360047
-0.00364458
-0.00368751
-0.00372924
-0.00376975
-0.00380899
-0.00384694
-0.00388356
-0.00391883
-0.00395275
-0.00398532
-0.00401654
-0.00404638
-0.00407483
-0.00410187
-0.00412747
-0.00415163
-0.00417434
-0.00419561
-0.00421544
-0.00423385
-0.00425085
-0.00426642
-0.00428056
-0.00429328
-0.00430459
-0.00431451
-0.00432303
-0.00433017
-0.00433596
-0.00434044
-0.00434367
-0.00434569
-0.00434654
-0.00434626
-0.00434487
-0.00434240
-0.00433886
-0.00433427
-0.00432863
-0.00432198
-0.00431434
-0.00430575
-0.00429625
-0.00428588
-0.00427466
-0.00426261
-0.00424974
-0.00423609
-0.00422169
-0.00420659
-0.00419084
-0.00417447
-0.00415751
-0.00414000
-0.00412196
-0.00410341
-0.00408438
-0.00406490
-0.00404498
-0.00402468
-0.00400402
-0.00398303
-0.00396174
-0.00394015
-0.00391829
-0.00389617
-0.00387383
-0.00385130
-0.00382858
-0.00380573
-0.00378275
-0.00375968
-0.00373652
-0.00371328
-0.00368998
-0.00366667
-0.00364337
-0.00362010
-0.00359688
-0.00357374
-0.00355068
-0.00352773
-0.00350493
-0.00348229
-0.00345986
-0.00343766
-0.00341572
-0.00339405
-0.00337267
-0.00335160
-0.00333090
-0.00331060
-0.00329074
-0.00327136
-0.00325248
-0.00323409
-0.00321616
-0.00319867
-0.00318160
-0.00316495
-0.00314872
-0.00313292
-0.00311758
-0.00310267
-0.00308822
-0.00307424
-0.00306077
-0.00304785
-0.00303546
-0.00302362
-0.00301234
-0.00300162
-0.00299148
-0.00298193
-0.00297301
-0.00296474
-0.00295712
-0.00295013
-0.00294375
-0.00293798
-0.00293283
-0.00292831
-0.00292443
-0.00292121
-0.00291867
-0.00291684
-0.00291575
-0.00291540
-0.00291581
-0.00291702
-0.00291904
-0.00292184
-0.00292541
-0.00292971
-0.00293472
-0.00294045
-0.00294691
-0.00295413
-0.00296214
-0.00297093
-0.00298050
-0.00299086
-0.00300198
-0.00301385
-0.00302647
-0.00303979
-0.00305380
-0.00306845
-0.00308372
-0.00309958
-0.00311601
-0.00313301
-0.00315051
-0.00316848
-0.00318690
-0.00320576
-0.00322505
-0.00324477
-0.00326492
-0.00328549
-0.00330648
-0.00332786
-0.00334958
-0.00337161
-0.00339392
-0.00341647
-0.00343924
-0.00346222
-0.00348536
-0.00350864
-0.00353201
-0.00355541
-0.00357879
-0.00360210
-0.00362528
-0.00364829
-0.00367109
-0.00369365
-0.00371594
-0.00373792
-0.00375954
-0.00378076
-0.00380159
-0.00382200
-0.00384199
-0.00386156
-0.00388069
-0.00389940
-0.00391769
-0.00393554
-0.00395294
-0.00396985
-0.00398627
-0.00400217
-0.00401753
-0.00403236
-0.00404666
-0.00406042
-0.00407366
-0.00408633
-0.00409843
-0.00410992
-0.00412082
-0.00413111
-0.00414078
-0.00414980
-0.00415812
-0.00416573
-0.00417263
-0.00417882
-0.00418428
-0.00418903
-0.00419304
-0.00419634
-0.00419889
-0.00420072
-0.00420181
-0.00420217
-0.00420182
-0.00420076
-0.00419902
-0.00419659
-0.00419346
-0.00418963
-0.00418513
-0.00417996
-0.00417414
-0.00416769
-0.00416064
-0.00415303
-0.00414491
-0.00413631
-0.00412725
-0.00411769
-0.00410763
-0.00409703
-0.00408589
-0.00407423
-0.00406206
-0.00404935
-0.00403609
-0.00402229
-0.00400795
-0.00399307
-0.00397763
-0.00396164
-0.00394508
-0.00392795
-0.00391025
-0.00389198
-0.00387316
-0.00385377
-0.00383384
-0.00381338
-0.00379244
-0.00377109
-0.00374934
-0.00372723
-0.00370477
-0.00368198
-0.00365889
-0.00363554
-0.00361198
-0.00358825
-0.00356438
-0.00354039
-0.00351631
-0.00349216
-0.00346796
-0.00344371
-0.00341941
-0.00339507
-0.00337069
-0.00334626
-0.00332180
-0.00329729
-0.00327277
-0.00324824
-0.00322374
-0.00319929
-0.00317491
-0.00315063
-0.00312647
-0.00310242
-0.00307851
-0.00305473
-0.00303112
-0.00300772
-0.00298457
-0.00296172
-0.00293921
-0.00291705
-0.00289528
-0.00287391
-0.00285299
-0.00283251
-0.00281248
-0.00279292
-0.00277383
-0.00275522
-0.00273709
-0.00271940
-0.00270217
-0.00268538
-0.00266903
-0.00265310
-0.00263757
-0.00262245
-0.00260774
-0.00259342
-0.00257951
-0.00256602
-0.00255299
-0.00254044
-0.00252838
-0.00251683
-0.00250582
-0.00249541
-0.00248562
-0.00247647
-0.00246800
-0.00246026
-0.00245329
-0.00244715
-0.00244187
-0.00243747
-0.00243397
-0.00243138
-0.00242969
-0.00242890
-0.00242900
-0.00242998
-0.00243182
-0.00243448
-0.00243792
-0.00244215
-0.00244715
-0.00245289
-0.00245934
-0.00246645
-0.00247418
-0.00248252
-0.00249145
-0.00250094
-0.00251097
-0.00252150
-0.00253249
-0.00254393
-0.00255580
-0.00256809
-0.00258080
-0.00259392
-0.00260746
-0.00262143
-0.00263585
-0.00265072
-0.00266606
-0.00268186
-0.00269814
-0.00271489
-0.00273211
-0.00274979
-0.00276787
-0.00278634
-0.00280515
-0.00282431
-0.00284381
-0.00286367
-0.00288389
-0.00290445
-0.00292538
-0.00294663
-0.00296817
-0.00298994
-0.00301189
-0.00303399
-0.00305621
-0.00307853
-0.00310093
-0.00312337
-0.00314585
-0.00316839
-0.00319095
-0.00321354
-0.00323612
-0.00325868
-0.00328123
-0.00330375
-0.00332623
-0.00334864
-0.00337095
-0.00339314
-0.00341520
-0.00343714
-0.00345896
-0.00348067
-0.00350226
-0.00352376
-0.00354516
-0.00356650
-0.00358778
-0.00360899
-0.00363013
-0.00365122
-0.00367224
-0.00369318
-0.00371401
-0.00373470
-0.00375524
-0.00377560
-0.00379576
-0.00381571
-0.00383543
-0.00385491
-0.00387416
-0.00389317
-0.00391195
-0.00393046
-0.00394869
-0.00396662
-0.00398424
-0.00400155
-0.00401851
-0.00403510
-0.00405132
-0.00406715
-0.00408258
-0.00409759
-0.00411219
-0.00412638
-0.00414019
-0.00415361
-0.00416665
-0.00417929
-0.00419152
-0.00420333
-0.00421472
-0.00422565
-0.00423608
-0.00424597
-0.00425528
-0.00426401
-0.00427212
-0.00427963
-0.00428653
-0.00429281
-0.00429848
-0.00430351
-0.00430789
-0.00431159
-0.00431461
-0.00431695
-0.00431861
-0.00431960
-0.00431992
-0.00431959
-0.00431863
-0.00431704
-0.00431483
-0.00431198
-0.00430848
-0.00430431
-0.00429946
-0.00429391
-0.00428764
-0.00428065
-0.00427296
-0.00426455
-0.00425545
-0.00424565
-0.00423514
-0.00422394
-0.00421207
-0.00419958
-0.00418650
-0.00417285
-0.00415861
-0.00414378
-0.00412835
-0.00411231
-0.00409563
-0.00407833
-0.00406041
-0.00404189
-0.00402277
-0.00400307
-0.00398278
-0.00396191
-0.00394046
-0.00391845
-0.00389588
-0.00387276
-0.00384911
-0.00382493
-0.00380024
-0.00377507
-0.00374941
-0.00372330
-0.00369673
-0.00366973
-0.00364232
-0.00361449
-0.00358625
-0.00355759
-0.00352847
-0.00349888
-0.00346879
-0.00343821
-0.00340712
-0.00337552
-0.00334342
-0.00331077
-0.00327756
-0.00324377
-0.00320937
-0.00317436
-0.00313875
-0.00310256
-0.00306579
-0.00302847
-0.00299061
-0.00295224
-0.00291338
-0.00287408
-0.00283434
-0.00279417
-0.00275357
-0.00271255
-0.00267109
-0.00262920
-0.00258689
-0.00254415
-0.00250097
-0.00245735
-0.00241326
-0.00236872
-0.00232370
-0.00227818
-0.00223212
-0.00218545
-0.00213816
-0.00209023
-0.00204166
-0.00199245
-0.00194257
-0.00189202
-0.00184078
-0.00178884
-0.00173619
-0.00168286
-0.00162886
-0.00157419
-0.00151886
-0.00146286
-0.00140622
-0.00134896
-0.00129111
-0.00123272
-0.00117379
-0.00111434
-0.00105438
-0.00099393
-0.00093303
-0.00087170
-0.00080997
-0.00074786
-0.00068538
-0.00062256
-0.00055942
-0.00049597
-0.00043223
-0.00036822
-0.00030396
-0.00023948
-0.00017480
-0.00010992
-0.00004483
0.00002046
0.00008593
0.00015155
0.00021732
0.00028322
0.00034925
0.00041538
0.00048160
0.00054789
0.00061419
0.00068048
0.00074671
0.00081287
0.00087893
0.00094487
0.00101066
0.00107627
0.00114167
0.00120684
0.00127175
0.00133639
0.00140075
0.00146480
0.00152855
0.00159198
0.00165510
0.00171786
0.00178024
0.00184220
0.00190369
0.00196469
0.00202517
0.00208513
0.00214453
0.00220338
0.00226166
0.00231939
0.00237656
0.00243319
0.00248924
0.00254471
0.00259958
0.00265383
0.00270746
0.00276046
0.00281280
0.00286450
0.00291553
0.00296590
0.00301558
0.00306456
0.00311282
0.00316035
0.00320717
0.00325330
0.00329878
0.00334362
0.00338781
0.00343136
0.00347435
0.00351683
0.00355885
0.00360043
0.00364155
0.00368219
0.00372238
0.00376213
0.00380146
0.00384040
0.00387891
0.00391700
0.00395466
0.00399188
0.00402863
0.00406490
0.00410067
0.00413593
0.00417067
0.00420489
0.00423859
0.00427176
0.00430439
0.00433649
0.00436805
0.00439910
0.00442966
0.00445973
0.00448933
0.00451847
0.00454717
0.00457544
0.00460330
0.00463078
0.00465788
0.00468464
0.00471108
0.00473725
0.00476318
0.00478887
0.00481437
0.00483969
0.00486485
0.00488988
0.00491478
0.00493958
0.00496429
0.00498890
0.00501343
0.00503784
0.00506213
0.00508627
0.00511024
0.00513401
0.00515756
0.00518090
0.00520405
0.00522703
0.00524987
0.00527261
0.00529527
0.00531788
0.00534046
0.00536303
0.00538560
0.00540816
0.00543075
0.00545335
0.00547596
0.00549859
0.00552122
0.00554383
0.00556643
0.00558903
0.00561161
0.00563417
0.00565671
0.00567923
0.00570175
0.00572426
0.00574676
0.00576926
0.00579176
0.00581426
0.00583676
0.00585928
0.00588185
0.00590448
0.00592719
0.00594996
0.00597279
0.00599566
0.00601858
0.00604157
0.00606464
0.00608784
0.00611115
0.00613458
0.00615810
0.00618170
0.00620539
0.00622918
0.00625306
0.00627702
0.00630106
0.00632515
0.00634929
0.00637345
0.00639762
0.00642180
0.00644596
0.00647009
0.00649416
0.00651816
0.00654207
0.00656589
0.00658960
0.00661318
0.00663659
0.00665980
0.00668277
0.00670546
0.00672781
0.00674979
0.00677137
0.00679251
0.00681323
0.00683349
0.00685327
0.00687255
0.00689130
0.00690951
0.00692718
0.00694430
0.00696086
0.00697681
0.00699208
0.00700658
0.00702025
0.00703304
0.00704495
0.00705597
0.00706606
0.00707521
0.00708339
0.00709056
0.00709671
0.00710182
0.00710590
0.00710894
0.00711093
0.00711188
0.00711176
0.00711058
0.00710830
0.00710493
0.00710043
0.00709478
0.00708797
0.00707995
0.00707070
0.00706022
0.00704847
0.00703541
0.00702100
0.00700520
0.00698802
0.00696946
0.00694948
0.00692804
0.00690505
0.00688048
0.00685429
0.00682650
0.00679709
0.00676605
0.00673339
0.00669909
0.00666315
0.00662560
0.00658642
0.00654563
0.00650324
0.00645924
0.00641366
0.00636649
0.00631772
0.00626736
0.00621542
0.00616191
0.00610688
0.00605037
0.00599241
0.00593305
0.00587230
0.00581017
0.00574669
0.00568185
0.00561570
0.00554829
0.00547965
0.00540986
0.00533898
0.00526712
0.00519434
0.00512071
0.00504626
0.00497102
0.00489501
0.00481827
0.00474083
0.00466273
0.00458403
0.00450477
0.00442501
0.00434476
0.00426406
0.00418293
0.00410140
0.00401949
0.00393723
0.00385463
0.00377175
0.00368863
0.00360533
0.00352188
0.00343834
0.00335476
0.00327116
0.00318760
0.00310414
0.00302085
0.00293779
0.00285503
0.00277262
0.00269066
0.00260928
0.00252860
0.00244872
0.00236973
0.00229169
0.00221466
0.00213869
0.00206383
0.00199012
0.00191756
0.00184619
0.00177598
0.00170695
0.00163911
0.00157248
0.00150708
0.00144290
0.00137995
0.00131824
0.00125781
0.00119870
0.00114096
0.00108463
0.00102975
0.00097636
0.00092449
0.00087416
0.00082540
0.00077823
0.00073271
0.00068886
0.00064672
0.00060626
0.00056749
0.00053037
0.00049490
0.00046109
0.00042897
0.00039853
0.00036981
0.00034282
0.00031756
0.00029403
0.00027225
0.00025225
0.00023404
0.00021765
0.00020308
0.00019030
0.00017931
0.00017010
0.00016267
0.00015703
0.00015316
0.00015104
0.00015066
0.00015198
0.00015499
0.00015965
0.00016596
0.00017386
0.00018329
0.00019421
0.00020657
0.00022033
0.00023546
0.00025197
0.00026986
0.00028913
0.00030975
0.00033171
0.00035496
0.00037947
0.00040518
0.00043207
0.00046006
0.00048911
0.00051917
0.00055023
0.00058227
0.00061525
0.00064911
0.00068379
0.00071921
0.00075533
0.00079211
0.00082949
0.00086745
0.00090595
0.00094495
0.00098441
0.00102430
0.00106455
0.00110511
0.00114596
0.00118704
0.00122833
0.00126977
0.00131133
0.00135296
0.00139459
0.00143616
0.00147763
0.00151893
0.00156003
0.00160087
0.00164141
0.00168162
0.00172144
0.00176083
0.00179975
0.00183814
0.00187594
0.00191307
0.00194945
0.00198501
0.00201967
0.00205337
0.00208604
0.00211764
0.00214810
0.00217737
0.00220539
0.00223211
0.00225750
0.00228153
0.00230416
0.00232535
0.00234508
0.00236334
0.00238012
0.00239540
0.00240914
0.00242135
0.00243203
0.00244120
0.00244884
0.00245494
0.00245947
0.00246240
0.00246373
0.00246345
0.00246157
0.00245807
0.00245297
0.00244626
0.00243793
0.00242800
0.00241647
0.00240334
0.00238858
0.00237217
0.00235412
0.00233443
0.00231313
0.00229025
0.00226583
0.00223986
0.00221239
0.00218344
0.00215303
0.00212123
0.00208807
0.00205360
0.00201783
0.00198079
0.00194249
0.00190293
0.00186210
0.00182000
0.00177661
0.00173197
0.00168612
0.00163909
0.00159093
0.00154168
0.00149138
0.00144005
0.00138776
0.00133453
0.00128040
0.00122541
0.00116956
0.00111285
0.00105529
0.00099689
0.00093769
0.00087772
0.00081704
0.00075568
0.00069366
0.00063103
0.00056782
0.00050406
0.00043977
0.00037498
0.00030970
0.00024397
0.00017783
0.00011131
0.00004439
-0.00002292
-0.00009063
-0.00015872
-0.00022717
-0.00029595
-0.00036501
-0.00043432
-0.00050379
-0.00057337
-0.00064299
-0.00071264
-0.00078227
-0.00085187
-0.00092139
-0.00099078
-0.00105999
-0.00112897
-0.00119765
-0.00126601
-0.00133399
-0.00140158
-0.00146877
-0.00153554
-0.00160188
-0.00166777
-0.00173318
-0.00179805
-0.00186233
-0.00192594
-0.00198884
-0.00205099
-0.00211238
-0.00217299
-0.00223277
-0.00229167
-0.00234965
-0.00240667
-0.00246268
-0.00251764
-0.00257152
-0.00262427
-0.00267588
-0.00272632
-0.00277556
-0.00282357
-0.00287033
-0.00291579
-0.00295992
-0.00300270
-0.00304413
-0.00308422
-0.00312297
-0.00316034
-0.00319633
-0.00323092
-0.00326410
-0.00329588
-0.00332621
-0.00335508
-0.00338247
-0.00340838
-0.00343281
-0.00345577
-0.00347723
-0.00349720
-0.00351572
-0.00353283
-0.00354858
-0.00356299
-0.00357606
-0.00358777
-0.00359814
-0.00360716
-0.00361482
-0.00362110
-0.00362601
-0.00362952
-0.00363163
-0.00363235
-0.00363166
-0.00362956
-0.00362605
-0.00362112
-0.00361477
-0.00360698
-0.00359773
-0.00358704
-0.00357491
-0.00356138
-0.00354649
-0.00353027
-0.00351275
-0.00349399
-0.00347403
-0.00345289
-0.00343062
-0.00340722
-0.00338272
-0.00335713
-0.00333047
-0.00330274
-0.00327395
-0.00324412
-0.00321329
-0.00318148
-0.00314869
-0.00311495
-0.00308027
-0.00304468
-0.00300824
-0.00297095
-0.00293286
-0.00289396
-0.00285428
-0.00281386
-0.00277273
-0.00273096
-0.00268858
-0.00264565
-0.00260220
-0.00255826
-0.00251387
-0.00246905
-0.00242383
-0.00237822
-0.00233225
-0.00228594
-0.00223932
-0.00219242
-0.00214526
-0.00209786
-0.00205024
-0.00200241
-0.00195435
-0.00190607
-0.00185759
-0.00180895
-0.00176020
-0.00171137
-0.00166249
-0.00161359
-0.00156472
-0.00151596
-0.00146735
-0.00141893
-0.00137072
-0.00132273
-0.00127500
-0.00122758
-0.00118053
-0.00113389
-0.00108769
-0.00104195
-0.00099667
-0.00095187
-0.00090756
-0.00086375
-0.00082048
-0.00077775
-0.00073559
-0.00069401
-0.00065301
-0.00061262
-0.00057283
-0.00053365
-0.00049506
-0.00045704
-0.00041956
-0.00038262
-0.00034619
-0.00031026
-0.00027485
-0.00023993
-0.00020553
-0.00017164
-0.00013825
-0.00010536
-0.00007295
-0.00004102
-0.00000957
0.00002138
0.00005179
0.00008161
0.00011079
0.00013928
0.00016705
0.00019409
0.00022036
0.00024585
0.00027054
0.00029440
0.00031745
0.00033967
0.00036111
0.00038178
0.00040172
0.00042093
0.00043944
0.00045727
0.00047443
0.00049095
0.00050685
0.00052218
0.00053697
0.00055121
0.00056493
0.00057816
0.00059089
0.00060313
0.00061486
0.00062609
0.00063684
0.00064713
0.00065696
0.00066633
0.00067523
0.00068365
0.00069159
0.00069907
0.00070609
0.00071265
0.00071875
0.00072439
0.00072955
0.00073424
0.00073848
0.00074226
0.00074560
0.00074849
0.00075094
0.00075296
0.00075459
0.00075584
0.00075673
0.00075730
0.00075760
0.00075764
0.00075746
0.00075707
0.00075648
0.00075568
0.00075466
0.00075344
0.00075205
0.00075053
0.00074890
0.00074720
0.00074546
0.00074368
0.00074187
0.00074003
0.00073816
0.00073626
0.00073436
0.00073247
0.00073062
0.00072885
0.00072715
0.00072554
0.00072403
0.00072264
0.00072141
0.00072036
0.00071952
0.00071892
0.00071855
0.00071842
0.00071851
0.00071882
0.00071936
0.00072013
0.00072115
0.00072244
0.00072401
0.00072588
0.00072802
0.00073043
0.00073312
0.00073610
0.00073936
0.00074292
0.00074677
0.00075092
0.00075538
0.00076016
0.00076528
0.00077078
0.00077669
0.00078307
0.00078995
0.00079736
0.00080533
0.00081389
0.00082306
0.00083285
0.00084324
0.00085422
0.00086578
0.00087794
0.00089070
0.00090405
0.00091800
0.00093255
0.00094770
0.00096347
0.00097986
0.00099689
0.00101460
0.00103301
0.00105215
0.00107201
0.00109260
0.00111392
0.00113598
0.00115877
0.00118227
0.00120644
0.00123126
0.00125670
0.00128274
0.00130937
0.00133658
0.00136437
0.00139274
0.00142173
0.00145139
0.00148173
0.00151275
0.00154444
0.00157680
0.00160983
0.00164353
0.00167787
0.00171284
0.00174841
0.00178455
0.00182125
0.00185851
0.00189630
0.00193465
0.00197355
0.00201300
0.00205298
0.00209349
0.00213450
0.00217598
0.00221792
0.00226030
0.00230311
0.00234632
0.00238992
0.00243387
0.00247813
0.00252269
0.00256752
0.00261261
0.00265795
0.00270351
0.00274927
0.00279520
0.00284129
0.00288750
0.00293378
0.00298009
0.00302642
0.00307274
0.00311901
0.00316520
0.00321124
0.00325711
0.00330279
0.00334826
0.00339350
0.00343849
0.00348319
0.00352757
0.00357160
0.00361526
0.00365851
0.00370136
0.00374379
0.00378577
0.00382727
0.00386826
0.00390873
0.00394865
0.00398802
0.00402681
0.00406502
0.00410264
0.00413967
0.00417607
0.00421186
0.00424701
0.00428151
0.00431536
0.00434855
0.00438109
0.00441298
0.00444422
0.00447481
0.00450477
0.00453413
0.00456292
0.00459115
0.00461884
0.00464597
0.00467254
0.00469852
0.00472388
0.00474860
0.00477268
0.00479613
0.00481893
0.00484107
0.00486255
0.00488341
0.00490364
0.00492324
0.00494220
0.00496051
0.00497816
0.00499513
0.00501139
0.00502692
0.00504171
0.00505578
0.00506916
0.00508188
0.00509396
0.00510542
0.00511625
0.00512642
0.00513592
0.00514474
0.00515289
0.00516036
0.00516718
0.00517335
0.00517890
0.00518381
0.00518810
0.00519176
0.00519481
0.00519724
0.00519904
0.00520020
0.00520072
0.00520058
0.00519980
0.00519835
0.00519623
0.00519343
0.00518998
0.00518589
0.00518116
0.00517580
0.00516980
0.00516316
0.00515589
0.00514799
0.00513950
0.00513044
0.00512081
0.00511061
0.00509987
0.00508861
0.00507687
0.00506468
0.00505205
0.00503897
0.00502546
0.00501153
0.00499721
0.00498251
0.00496745
0.00495204
0.00493627
0.00492012
0.00490360
0.00488672
0.00486948
0.00485187
0.00483389
0.00481551
0.00479672
0.00477753
0.00475794
0.00473796
0.00471758
0.00469680
0.00467559
0.00465395
0.00463184
0.00460928
0.00458628
0.00456287
0.00453905
0.00451486
0.00449032
0.00446548
0.00444037
0.00441506
0.00438958
0.00436396
0.00433824
0.00431245
0.00428661
0.00426074
0.00423486
0.00420898
0.00418308
0.00415716
0.00413120
0.00410523
0.00407925
0.00405330
0.00402740
0.00400159
0.00397586
0.00395022
0.00392466
0.00389919
0.00387381
0.00384855
0.00382341
0.00379840
0.00377353
0.00374882
0.00372430
0.00369999
0.00367590
0.00365211
0.00362866
0.00360561
0.00358298
0.00356078
0.00353899
0.00351761
0.00349661
0.00347596
0.00345566
0.00343569
0.00341604
0.00339670
0.00337763
0.00335884
0.00334031
0.00332203
0.00330396
0.00328611
0.00326845
0.00325101
0.00323379
0.00321681
0.00320007
0.00318356
0.00316731
0.00315134
0.00313566
0.00312027
0.00310516
0.00309032
0.00307575
0.00306147
0.00304748
0.00303384
0.00302058
0.00300775
0.00299535
0.00298337
0.00297179
0.00296061
0.00294984
0.00293946
0.00292946
0.00291982
0.00291053
0.00290156
0.00289291
0.00288456
0.00287647
0.00286862
0.00286096
0.00285344
0.00284604
0.00283876
0.00283161
0.00282461
0.00281777
0.00281110
0.00280458
0.00279821
0.00279197
0.00278588
0.00277995
0.00277419
0.00276861
0.00276320
0.00275794
0.00275276
0.00274762
0.00274248
0.00273734
0.00273218
0.00272701
0.00272183
0.00271661
0.00271133
0.00270598
0.00270059
0.00269515
0.00268971
0.00268427
0.00267884
0.00267345
0.00266808
0.00266275
0.00265742
0.00265210
0.00264678
0.00264145
0.00263613
0.00263082
0.00262552
0.00262021
0.00261489
0.00260956
0.00260420
0.00259880
0.00259337
0.00258790
0.00258241
0.00257689
0.00257137
0.00256588
0.00256042
0.00255500
0.00254960
0.00254421
0.00253884
0.00253348
0.00252812
0.00252276
0.00251739
0.00251202
0.00250663
0.00250123
0.00249582
0.00249040
0.00248500
0.00247961
0.00247424
0.00246886
0.00246347
0.00245803
0.00245254
0.00244696
0.00244127
0.00243544
0.00242946
0.00242332
0.00241702
0.00241054
0.00240388
0.00239703
0.00238999
0.00238273
0.00237525
0.00236752
0.00235954
0.00235132
0.00234285
0.00233416
0.00232525
0.00231612
0.00230679
0.00229725
0.00228750
0.00227753
0.00226734
0.00225693
0.00224630
0.00223543
0.00222432
0.00221298
0.00220141
0.00218958
0.00217751
0.00216516
0.00215252
0.00213959
0.00212632
0.00211272
0.00209878
0.00208451
0.00206989
0.00205489
0.00203948
0.00202362
0.00200723
0.00199027
0.00197271
0.00195451
0.00193568
0.00191620
0.00189608
0.00187534
0.00185398
0.00183199
0.00180934
0.00178599
0.00176192
0.00173712
0.00171155
0.00168521
0.00165805
0.00163007
0.00160125
0.00157157
0.00154103
0.00150963
0.00147736
0.00144421
0.00141016
0.00137516
0.00133921
0.00130232
0.00126450
0.00122579
0.00118618
0.00114569
0.00110432
0.00106206
0.00101893
0.00097495
0.00093014
0.00088452
0.00083810
0.00079087
0.00074285
0.00069404
0.00064443
0.00059404
0.00054285
0.00049085
0.00043803
0.00038439
0.00032991
0.00027457
0.00021834
0.00016118
0.00010308
0.00004402
-0.00001600
-0.00007699
-0.00013898
-0.00020198
-0.00026597
-0.00033095
-0.00039693
-0.00046391
-0.00053191
-0.00060093
-0.00067094
-0.00074193
-0.00081388
-0.00088675
-0.00096055
-0.00103526
-0.00111090
-0.00118746
-0.00126492
-0.00134327
-0.00142248
-0.00150252
-0.00158338
-0.00166503
-0.00174745
-0.00183064
-0.00191457
-0.00199924
-0.00208464
-0.00217075
-0.00225757
-0.00234511
-0.00243337
-0.00252234
-0.00261201
-0.00270238
-0.00279343
-0.00288514
-0.00297750
-0.00307049
-0.00316408
-0.00325824
-0.00335291
-0.00344804
-0.00354359
-0.00363952
-0.00373578
-0.00383232
-0.00392909
-0.00402604
-0.00412313
-0.00422031
-0.00431757
-0.00441489
-0.00451225
-0.00460960
-0.00470691
-0.00480412
-0.00490121
-0.00499814
-0.00509488
-0.00519142
-0.00528775
-0.00538386
-0.00547975
-0.00557540
-0.00567080
-0.00576591
-0.00586071
-0.00595518
-0.00604930
-0.00614303
-0.00623634
-0.00632920
-0.00642158
-0.00651343
-0.00660471
-0.00669538
-0.00678541
-0.00687476
-0.00696337
-0.00705119
-0.00713816
-0.00722423
-0.00730935
-0.00739348
-0.00747659
-0.00755865
-0.00763965
-0.00771956
-0.00779834
-0.00787591
-0.00795226
-0.00802735
-0.00810115
-0.00817365
-0.00824482
-0.00831466
-0.00838313
-0.00845023
-0.00851593
-0.00858022
-0.00864307
-0.00870447
-0.00876437
-0.00882271
-0.00887943
-0.00893447
-0.00898778
-0.00903929
-0.00908897
-0.00913678
-0.00918269
-0.00922668
-0.00926873
-0.00930879
-0.00934685
-0.00938287
-0.00941682
-0.00944864
-0.00947831
-0.00950575
-0.00953092
-0.00955379
-0.00957434
-0.00959254
-0.00960837
-0.00962183
-0.00963292
-0.00964162
-0.00964796
-0.00965192
-0.00965354
-0.00965280
-0.00964974
-0.00964439
-0.00963678
-0.00962693
-0.00961483
-0.00960049
-0.00958391
-0.00956510
-0.00954407
-0.00952080
-0.00949531
-0.00946763
-0.00943775
-0.00940570
-0.00937145
-0.00933500
-0.00929632
-0.00925541
-0.00921226
-0.00916685
-0.00911920
-0.00906933
-0.00901723
-0.00896293
-0.00890642
-0.00884774
-0.00878693
-0.00872403
-0.00865907
-0.00859211
-0.00852317
-0.00845226
-0.00837941
-0.00830464
-0.00822796
-0.00814940
-0.00806902
-0.00798684
-0.00790292
-0.00781731
-0.00773006
-0.00764123
-0.00755088
-0.00745905
-0.00736577
-0.00727108
-0.00717500
-0.00707758
-0.00697888
-0.00687895
-0.00677785
-0.00667563
-0.00657235
-0.00646808
-0.00636287
-0.00625678
-0.00614985
-0.00604214
-0.00593373
-0.00582469
-0.00571509
-0.00560504
-0.00549462
-0.00538394
-0.00527306
-0.00516206
-0.00505101
-0.00493997
-0.00482901
-0.00471819
-0.00460757
-0.00449722
-0.00438719
-0.00427752
-0.00416825
-0.00405941
-0.00395104
-0.00384317
-0.00373588
-0.00362921
-0.00352323
-0.00341801
-0.00331359
-0.00321001
-0.00310733
-0.00300558
-0.00290482
-0.00280512
-0.00270655
-0.00260918
-0.00251305
-0.00241823
-0.00232477
-0.00223272
-0.00214215
-0.00205314
-0.00196576
-0.00188009
-0.00179619
-0.00171411
-0.00163393
-0.00155569
-0.00147943
-0.00140520
-0.00133300
-0.00126285
-0.00119474
-0.00112868
-0.00106466
-0.00100270
-0.00094283
-0.00088506
-0.00082940
-0.00077586
-0.00072448
-0.00067527
-0.00062825
-0.00058341
-0.00054078
-0.00050037
-0.00046220
-0.00042630
-0.00039267
-0.00036130
-0.00033217
-0.00030530
-0.00028068
-0.00025832
-0.00023824
-0.00022045
-0.00020498
-0.00019184
-0.00018100
-0.00017243
-0.00016609
-0.00016193
-0.00015995
-0.00016013
-0.00016247
-0.00016694
-0.00017350
-0.00018213
-0.00019279
-0.00020546
-0.00022014
-0.00023682
-0.00025551
-0.00027619
-0.00029884
-0.00032343
-0.00034991
-0.00037824
-0.00040836
-0.00044026
-0.00047387
-0.00050915
-0.00054602
-0.00058442
-0.00062428
-0.00066554
-0.00070812
-0.00075197
-0.00079702
-0.00084319
-0.00089046
-0.00093877
-0.00098811
-0.00103845
-0.00108974
-0.00114197
-0.00119509
-0.00124906
-0.00130384
-0.00135935
-0.00141555
-0.00147236
-0.00152971
-0.00158751
-0.00164570
-0.00170418
-0.00176288
-0.00182174
-0.00188070
-0.00193970
-0.00199869
-0.00205762
-0.00211643
-0.00217508
-0.00223353
-0.00229175
-0.00234970
-0.00240734
-0.00246462
-0.00252151
-0.00257794
-0.00263386
-0.00268921
-0.00274393
-0.00279800
-0.00285139
-0.00290404
-0.00295593
-0.00300698
-0.00305715
-0.00310636
-0.00315457
-0.00320172
-0.00324775
-0.00329261
-0.00333628
-0.00337872
-0.00341992
-0.00345987
-0.00349857
-0.00353599
-0.00357213
-0.00360696
-0.00364047
-0.00367267
-0.00370354
-0.00373309
-0.00376129
-0.00378812
-0.00381356
-0.00383758
-0.00386014
-0.00388124
-0.00390087
-0.00391905
-0.00393579
-0.00395110
-0.00396496
-0.00397732
-0.00398815
-0.00399743
-0.00400513
-0.00401127
-0.00401585
-0.00401892
-0.00402048
-0.00402058
-0.00401922
-0.00401643
-0.00401225
-0.00400670
-0.00399984
-0.00399170
-0.00398230
-0.00397164
-0.00395973
-0.00394660
-0.00393228
-0.00391678
-0.00390012
-0.00388232
-0.00386341
-0.00384344
-0.00382246
-0.00380054
-0.00377774
-0.00375409
-0.00372963
-0.00370439
-0.00367841
-0.00365173
-0.00362440
-0.00359647
-0.00356799
-0.00353900
-0.00350954
-0.00347964
-0.00344934
-0.00341866
-0.00338764
-0.00335632
-0.00332473
-0.00329289
-0.00326085
-0.00322868
-0.00319644
-0.00316420
-0.00313201
-0.00309990
-0.00306791
-0.00303607
-0.00300442
-0.00297297
-0.00294175
-0.00291077
-0.00288008
-0.00284973
-0.00281976
-0.00279022
-0.00276112
-0.00273251
-0.00270439
-0.00267677
-0.00264964
-0.00262298
-0.00259679
-0.00257103
-0.00254572
-0.00252084
-0.00249641
-0.00247242
-0.00244887
-0.00242578
-0.00240315
-0.00238097
-0.00235928
-0.00233809
-0.00231743
-0.00229733
-0.00227780
-0.00225887
-0.00224053
-0.00222281
-0.00220571
-0.00218924
-0.00217343
-0.00215828
-0.00214381
-0.00213001
-0.00211685
-0.00210431
-0.00209237
-0.00208103
-0.00207027
-0.00206010
-0.00205049
-0.00204139
-0.00203277
-0.00202460
-0.00201688
-0.00200959
-0.00200273
-0.00199629
-0.00199029
-0.00198474
-0.00197962
-0.00197495
-0.00197071
-0.00196689
-0.00196347
-0.00196041
-0.00195767
-0.00195520
-0.00195295
-0.00195090
-0.00194905
-0.00194738
-0.00194588
-0.00194455
-0.00194336
-0.00194233
-0.00194146
-0.00194074
-0.00194014
-0.00193963
-0.00193921
-0.00193885
-0.00193858
-0.00193840
-0.00193832
-0.00193831
-0.00193838
-0.00193849
-0.00193862
-0.00193875
-0.00193888
-0.00193901
-0.00193912
-0.00193920
-0.00193922
-0.00193916
-0.00193900
-0.00193874
-0.00193837
-0.00193787
-0.00193724
-0.00193643
-0.00193538
-0.00193408
-0.00193247
-0.00193055
-0.00192831
-0.00192576
-0.00192290
-0.00191975
-0.00191631
-0.00191260
-0.00190859
-0.00190426
-0.00189962
-0.00189467
-0.00188946
-0.00188400
-0.00187832
-0.00187242
-0.00186630
-0.00185995
-0.00185337
-0.00184659
-0.00183959
-0.00183238
-0.00182495
-0.00181730
-0.00180943
-0.00180134
-0.00179300
-0.00178444
-0.00177568
-0.00176677
-0.00175776
-0.00174868
-0.00173953
-0.00173027
-0.00172083
-0.00171119
-0.00170130
-0.00169114
-0.00168066
-0.00166987
-0.00165876
-0.00164737
-0.00163569
-0.00162372
-0.00161148
-0.00159897
-0.00158620
-0.00157319
-0.00155995
-0.00154650
-0.00153285
-0.00151901
-0.00150500
-0.00149083
-0.00147652
-0.00146205
-0.00144741
-0.00143259
-0.00141756
-0.00140232
-0.00138684
-0.00137113
-0.00135514
-0.00133886
-0.00132226
-0.00130535
-0.00128814
-0.00127064
-0.00125283
-0.00123473
-0.00121634
-0.00119768
-0.00117876
-0.00115961
-0.00114025
-0.00112069
-0.00110095
-0.00108103
-0.00106092
-0.00104063
-0.00102016
-0.00099951
-0.00097872
-0.00095780
-0.00093678
-0.00091566
-0.00089447
-0.00087322
-0.00085192
-0.00083061
-0.00080926
-0.00078790
-0.00076653
-0.00074515
-0.00072376
-0.00070235
-0.00068093
-0.00065947
-0.00063799
-0.00061648
-0.00059495
-0.00057338
-0.00055180
-0.00053020
-0.00050858
-0.00048692
-0.00046525
-0.00044359
-0.00042198
-0.00040044
-0.00037898
-0.00035763
-0.00033640
-0.00031532
-0.00029440
-0.00027363
-0.00025300
-0.00023251
-0.00021217
-0.00019200
-0.00017202
-0.00015222
-0.00013264
-0.00011330
-0.00009421
-0.00007541
-0.00005688
-0.00003865
-0.00002070
-0.00000302
0.00001440
0.00003159
0.00004855
0.00006529
0.00008178
0.00009804
0.00011407
0.00012987
0.00014544
0.00016078
0.00017588
0.00019073
0.00020531
0.00021962
0.00023363
0.00024732
0.00026069
0.00027370
0.00028635
0.00029862
0.00031051
0.00032201
0.00033310
0.00034376
0.00035396
0.00036370
0.00037299
0.00038184
0.00039025
0.00039822
0.00040575
0.00041283
0.00041947
0.00042570
0.00043155
0.00043705
0.00044219
0.00044699
0.00045144
0.00045554
0.00045929
0.00046267
0.00046566
0.00046825
0.00047041
0.00047215
0.00047345
0.00047434
0.00047482
0.00047487
0.00047447
0.00047359
0.00047222
0.00047038
0.00046808
0.00046530
0.00046204
0.00045829
0.00045405
0.00044931
0.00044410
0.00043840
0.00043223
0.00042561
0.00041853
0.00041097
0.00040288
0.00039421
0.00038494
0.00037509
0.00036467
0.00035370
0.00034218
0.00033012
0.00031753
0.00030442
0.00029084
0.00027681
0.00026237
0.00024752
0.00023226
0.00021660
0.00020054
0.00018410
0.00016731
0.00015018
0.00013274
0.00011500
0.00009695
0.00007862
0.00006000
0.00004113
0.00002201
0.00000268
-0.00001681
-0.00003644
-0.00005618
-0.00007603
-0.00009601
-0.00011616
-0.00013653
-0.00015712
-0.00017792
-0.00019891
-0.00022007
-0.00024137
-0.00026280
-0.00028434
-0.00030596
-0.00032765
-0.00034937
-0.00037111
-0.00039284
-0.00041456
-0.00043626
-0.00045794
-0.00047957
-0.00050115
-0.00052266
-0.00054406
-0.00056535
-0.00058649
-0.00060748
-0.00062832
-0.00064904
-0.00066967
-0.00069024
-0.00071074
-0.00073119
-0.00075158
-0.00077187
-0.00079204
-0.00081204
-0.00083182
-0.00085133
-0.00087055
-0.00088948
-0.00090810
-0.00092639
-0.00094434
-0.00096192
-0.00097911
-0.00099591
-0.00101232
-0.00102831
-0.00104388
-0.00105903
-0.00107376
-0.00108806
-0.00110191
-0.00111528
-0.00112815
-0.00114048
-0.00115225
-0.00116345
-0.00117408
-0.00118415
-0.00119368
-0.00120266
-0.00121108
-0.00121894
-0.00122620
-0.00123285
-0.00123888
-0.00124426
-0.00124896
-0.00125292
-0.00125609
-0.00125845
-0.00125999
-0.00126069
-0.00126058
-0.00125965
-0.00125791
-0.00125537
-0.00125206
-0.00124798
-0.00124314
-0.00123754
-0.00123120
-0.00122412
-0.00121635
-0.00120793
-0.00119890
-0.00118932
-0.00117922
-0.00116864
-0.00115759
-0.00114610
-0.00113415
-0.00112173
-0.00110883
-0.00109544
-0.00108158
-0.00106726
-0.00105248
-0.00103724
-0.00102155
-0.00100538
-0.00098870
-0.00097143
-0.00095352
-0.00093494
-0.00091568
-0.00089575
-0.00087515
-0.00085390
-0.00083200
-0.00080949
-0.00078639
-0.00076271
-0.00073847
-0.00071366
-0.00068828
-0.00066237
-0.00063594
-0.00060907
-0.00058182
-0.00055423
-0.00052634
-0.00049817
-0.00046975
-0.00044110
-0.00041222
-0.00038312
-0.00035379
-0.00032422
-0.00029443
-0.00026443
-0.00023419
-0.00020371
-0.00017293
-0.00014185
-0.00011044
-0.00007865
-0.00004647
-0.00001386
0.00001918
0.00005264
0.00008652
0.00012083
0.00015556
0.00019069
0.00022624
0.00026226
0.00029878
0.00033580
0.00037335
0.00041141
0.00044992
0.00048884
0.00052812
0.00056772
0.00060762
0.00064779
0.00068822
0.00072888
0.00076979
0.00081093
0.00085232
0.00089397
0.00093588
0.00097803
0.00102040
0.00106297
0.00110572
0.00114861
0.00119161
0.00123470
0.00127790
0.00132119
0.00136459
0.00140808
0.00145167
0.00149534
0.00153909
0.00158291
0.00162681
0.00167082
0.00171495
0.00175918
0.00180348
0.00184783
0.00189220
0.00193656
0.00198088
0.00202515
0.00206932
0.00211340
0.00215736
0.00220117
0.00224479
0.00228820
0.00233138
0.00237431
0.00241702
0.00245948
0.00250169
0.00254363
0.00258531
0.00262671
0.00266780
0.00270857
0.00274899
0.00278907
0.00282879
0.00286813
0.00290709
0.00294564
0.00298374
0.00302137
0.00305854
0.00309521
0.00313138
0.00316704
0.00320216
0.00323677
0.00327086
0.00330443
0.00333748
0.00336999
0.00340190
0.00343320
0.00346381
0.00349371
0.00352288
0.00355128
0.00357889
0.00360569
0.00363164
0.00365672
0.00368091
0.00370420
0.00372658
0.00374804
0.00376858
0.00378818
0.00380683
0.00382452
0.00384122
0.00385692
0.00387158
0.00388522
0.00389783
0.00390940
0.00391989
0.00392928
0.00393754
0.00394467
0.00395062
0.00395536
0.00395888
0.00396116
0.00396217
0.00396190
0.00396036
0.00395754
0.00395346
0.00394815
0.00394163
0.00393393
0.00392506
0.00391501
0.00390379
0.00389142
0.00387792
0.00386334
0.00384772
0.00383109
0.00381345
0.00379483
0.00377524
0.00375469
0.00373318
0.00371073
0.00368734
0.00366303
0.00363784
0.00361179
0.00358494
0.00355730
0.00352888
0.00349968
0.00346971
0.00343895
0.00340742
0.00337514
0.00334211
0.00330836
0.00327392
0.00323882
0.00320310
0.00316678
0.00312990
0.00309249
0.00305461
0.00301630
0.00297759
0.00293850
0.00289908
0.00285940
0.00281952
0.00277950
0.00273938
0.00269917
0.00265890
0.00261858
0.00257824
0.00253788
0.00249750
0.00245712
0.00241675
0.00237641
0.00233612
0.00229588
0.00225568
0.00221551
0.00217535
0.00213517
0.00209497
0.00205473
0.00201445
0.00197413
0.00193378
0.00189341
0.00185302
0.00181260
0.00177217
0.00173175
0.00169137
0.00165103
0.00161073
0.00157046
0.00153019
0.00148989
0.00144955
0.00140917
0.00136879
0.00132840
0.00128804
0.00124772
0.00120748
0.00116733
0.00112726
0.00108729
0.00104743
0.00100767
0.00096805
0.00092857
0.00088925
0.00085011
0.00081117
0.00077242
0.00073386
0.00069548
0.00065727
0.00061923
0.00058135
0.00054359
0.00050594
0.00046839
0.00043093
0.00039356
0.00035626
0.00031906
0.00028199
0.00024511
0.00020847
0.00017209
0.00013600
0.00010021
0.00006475
0.00002965
-0.00000510
-0.00003949
-0.00007354
-0.00010724
-0.00014059
-0.00017357
-0.00020619
-0.00023847
-0.00027044
-0.00030211
-0.00033351
-0.00036464
-0.00039552
-0.00042614
-0.00045653
-0.00048671
-0.00051668
-0.00054646
-0.00057605
-0.00060546
-0.00063470
-0.00066378
-0.00069269
-0.00072144
-0.00074999
-0.00077828
-0.00080626
-0.00083386
-0.00086104
-0.00088775
-0.00091396
-0.00093968
-0.00096491
-0.00098965
-0.00101387
-0.00103757
-0.00106071
-0.00108327
-0.00110523
-0.00112658
-0.00114734
-0.00116752
-0.00118712
-0.00120615
-0.00122458
-0.00124241
-0.00125959
-0.00127611
-0.00129194
-0.00130705
-0.00132140
-0.00133496
-0.00134770
-0.00135960
-0.00137069
-0.00138098
-0.00139050
-0.00139925
-0.00140725
-0.00141447
-0.00142089
-0.00142647
-0.00143119
-0.00143506
-0.00143808
-0.00144027
-0.00144162
-0.00144215
-0.00144184
-0.00144069
-0.00143871
-0.00143591
-0.00143230
-0.00142789
-0.00142273
-0.00141685
-0.00141028
-0.00140304
-0.00139515
-0.00138660
-0.00137740
-0.00136754
-0.00135706
-0.00134598
-0.00133431
-0.00132207
-0.00130926
-0.00129587
-0.00128189
-0.00126733
-0.00125220
-0.00123652
-0.00122031
-0.00120365
-0.00118660
-0.00116923
-0.00115158
-0.00113369
-0.00111556
-0.00109721
-0.00107867
-0.00105995
-0.00104109
-0.00102212
-0.00100307
-0.00098396
-0.00096482
-0.00094566
-0.00092651
-0.00090743
-0.00088845
-0.00086960
-0.00085090
-0.00083235
-0.00081393
-0.00079565
-0.00077750
-0.00075953
-0.00074175
-0.00072422
-0.00070695
-0.00068998
-0.00067330
-0.00065691
-0.00064080
-0.00062497
-0.00060940
-0.00059406
-0.00057895
-0.00056405
-0.00054937
-0.00053491
-0.00052067
-0.00050668
-0.00049295
-0.00047952
-0.00046638
-0.00045356
-0.00044105
-0.00042888
-0.00041708
-0.00040568
-0.00039471
-0.00038420
-0.00037418
-0.00036468
-0.00035573
-0.00034735
-0.00033953
-0.00033226
-0.00032552
-0.00031927
-0.00031350
-0.00030816
-0.00030323
-0.00029868
-0.00029448
-0.00029063
-0.00028709
-0.00028382
-0.00028077
-0.00027786
-0.00027507
-0.00027239
-0.00026980
-0.00026730
-0.00026488
-0.00026253
-0.00026023
-0.00025795
-0.00025565
-0.00025330
-0.00025086
-0.00024833
-0.00024567
-0.00024286
-0.00023991
-0.00023684
-0.00023365
-0.00023033
-0.00022686
-0.00022319
-0.00021928
-0.00021512
-0.00021070
-0.00020597
-0.00020093
-0.00019555
-0.00018984
-0.00018381
-0.00017745
-0.00017076
-0.00016370
-0.00015627
-0.00014844
-0.00014021
-0.00013154
-0.00012240
-0.00011278
-0.00010265
-0.00009199
-0.00008081
-0.00006910
-0.00005687
-0.00004411
-0.00003081
-0.00001697
-0.00000258
0.00001236
0.00002784
0.00004384
0.00006032
0.00007729
0.00009476
0.00011277
0.00013132
0.00015043
0.00017012
0.00019041
0.00021134
0.00023293
0.00025519
0.00027815
0.00030183
0.00032629
0.00035156
0.00037769
0.00040472
0.00043269
0.00046160
0.00049145
0.00052222
0.00055389
0.00058643
0.00061977
0.00065387
0.00068870
0.00072423
0.00076045
0.00079736
0.00083493
0.00087315
0.00091200
0.00095146
0.00099150
0.00103209
0.00107316
0.00111467
0.00115657
0.00119883
0.00124145
0.00128443
0.00132777
0.00137148
0.00141555
0.00145997
0.00150470
0.00154973
0.00159502
0.00164052
0.00168618
