 18:12:16.76587,-1.20385,-1.207394,-1.215128,-1.196438,-1.181453,-1.228018,-1.198694,-1.209167,-1.199661,-1.195955,-1.19821,-1.203366,-1.187254,-1.21255,-1.2024,-1.179198,-1.238169,-1.196277,-1.19096,-1.204011,-1.201755,-1.197083,-1.210778,-1.198049,-1.198855,-1.19531,-1.172592,-1.205783,-1.179037,-1.205622,-1.196438,-1.181615,-1.194827,-1.200627,-1.175814,-1.197888,-1.186609,-1.173236,-1.210295,-1.189993,-1.189832,-1.207878,-1.182742,-1.187093,-1.189026,-1.178876,-1.193538,-1.197888,-1.197566,-1.171947,-1.193538,-1.181292,-1.193054,-1.184354,-1.188865,-1.182098,-1.194505,-1.184031,-1.195149,-1.192571,-1.186771,-1.209972,-1.177748,-1.201433,-1.180326,-1.211423,-1.18387,-1.193054,-1.192732,-1.174364,-1.200627,-1.179359,-1.191121,-1.182742,-1.187576,-1.187576,-1.181453,-1.179681,-1.174686,-1.177587,-1.191927,-1.182904,-1.177748,-1.193538,-1.180648,-1.18097,-1.199016,-1.161635,-1.197244,-1.179681,-1.177587,-1.189832,-1.17662,-1.160991,-1.185804,-1.185643,-1.149229,-1.190476,-1.173558,-1.184676,-1.165663,-1.17098,-1.180326,-1.168725,-1.167113,-1.178876,-1.197405,-1.15938,-1.18242,-1.159541,-1.177587,-1.18097,-1.166308,-1.175653,-1.178876,-1.161635,-1.170819,-1.194827,-1.148584,-1.169691,-1.163408,-1.175492,-1.159541,-1.173558,-1.159541,-1.178231,-1.159057,-1.155029,-1.182098,-1.1423,-1.165824,-1.177587,-1.13215,-1.150679,-1.155351,-1.131505,-1.144878,-1.147295,-1.110881,-1.144234,-1.125221,-1.125866,-1.134889,-1.117326,-1.118615,-1.11507,-1.122643,-1.10782,-1.138756,-1.096863,-1.113459,-1.126027,-1.092674,-1.112492,-1.103469,-1.095413,-1.08639,-1.100247,-1.096058,-1.100247,-1.079462,-1.083973,-1.104758,-1.088324,-1.093158,-1.064639,-1.098475,-1.079623,-1.065928,-1.088324,-1.063027,-1.067378,-1.059644,-1.08059,-1.049171,-1.084779,-1.0648,-1.076401,-1.06625,-1.052715,-1.052554,-1.062705,-1.041276,-1.068022,-1.066572,-1.051749,-1.061738,-1.076562,-1.055132,-1.05626,-1.074628,-1.045948,-1.046915,-1.068183,-1.056421,-1.072373,-1.054649,-1.038859,-1.060449,-1.045787,-1.028708,-1.052071,-1.056744,-1.034992,-1.057388,-1.050621,-1.039664,-1.043692,-1.013723,-1.042887,-1.022424,-1.026774,-1.03048,-1.037892,-1.019202,-1.021941,-1.002606,-1.020491,-1.042726,-1.001478,-1.03467,-1.027902,-1.030803,-1.029191,-1.020491,-0.990038,-1.029836,-1.018396,-1.009856,-1.048043,-0.980854,-1.012434,-1.025969,-1.018396,-0.997128,-0.98456,-1.014207,-1.00744,-0.973926,-0.971992,-1.012434,-0.97312,-0.991972,-0.992455,-0.957169,-1.011951,-0.981982,-0.980854,-0.973604,-0.98456,-0.962486,-0.98311,-1.01469,-0.957491,-0.975215,-0.964903,-0.97312,-0.987621,-0.973765,-0.967964,-0.979726,-0.959102,-0.96732,-0.975859,-0.94154,-0.962808,-0.951207,-0.939768,-0.972637,-0.976343,-0.951046,-0.970703,-0.950241,-0.963614,-0.972153,-0.955074,-0.956202,-0.971509,-0.931711,-0.950724,-0.951852,-0.946374,-0.939123,-0.956686,-0.947985,-0.936706,-0.946374,-0.925589,-0.9301,-0.904481,-0.952335,-0.944762,-0.930906,-0.920755,-0.909154,-0.928328,-0.947985,-0.915599,-0.915438,-0.939445,-0.902065,-0.923655,-0.913182,-0.891591,-0.917371,-0.930906,-0.906254,-0.877896,-0.914149,-0.858078,-0.894169,-0.892719,-0.881924,-0.908671,-0.904965,-0.873062,-0.909476,-0.907382,-0.878379,-0.90432,-0.881441,-0.880313,-0.871934,-0.880796,-0.892075,-0.894492,-0.874351,-0.894814,-0.880474,-0.872901,-0.894169,-0.851794,-0.883535,-0.884985,-0.841482,-0.875962,-0.883213,-0.827947,-0.866456,-0.870484,-0.82537,-0.863395,-0.868712,-0.869034,-0.862428,-0.837615,-0.856789,-0.862106,-0.856144,-0.860011,-0.860011,-0.859367,-0.849055,-0.862428,-0.860978,-0.876768,-0.845671,-0.857594,-0.855822,-0.866617,-0.854855,-0.856305,-0.839226,-0.831492,-0.866134,-0.840354,-0.853405,-0.840354,-0.840354,-0.842449,-0.830042,-0.80829,-0.80249,-0.82537,-0.827303,-0.812318,-0.816669,-0.82972,-0.810224,-0.799267,-0.804101,-0.775743,-0.810063,-0.806196,-0.810224,-0.778805,-0.810868,-0.782672,-0.786378,-0.801201,-0.800718,-0.796367,-0.80829,-0.787022,-0.784283,-0.804585,-0.794595,-0.786378,-0.817797,-0.77381,-0.820536,-0.794756,-0.789278,-0.792661,-0.809902,-0.765915,-0.825531,-0.786055,-0.749802,-0.829236,-0.777516,-0.80684,-0.790889,-0.79395,-0.799751,-0.780738,-0.77671,-0.783316,-0.793467,-0.798623,-0.795562,-0.782349,-0.795723,-0.785733,-0.754314,-0.792984,-0.771232,-0.761403,-0.783961,-0.75657,-0.764142,-0.789117,-0.742391,-0.746258,-0.768493,-0.756408,-0.738524,-0.752058,-0.73804,-0.734334,-0.742391,-0.715805,-0.721606,-0.75093,-0.732723,-0.741746,-0.733045,-0.73804,-0.712099,-0.740779,-0.734012,-0.721445,-0.738846,-0.721122,-0.761242,-0.737557,-0.762692,-0.727084,-0.72789,-0.764304,-0.767043,-0.742713,-0.745774,-0.743841,-0.725473,-0.792984,-0.749641,-0.744808,-0.739813,-0.735462,-0.728534,-0.768493,-0.732723,-0.732401,-0.737396,-0.721606,-0.728856,-0.720156,-0.716933,-0.723378,-0.72515,-0.731756,-0.703882,-0.711133,-0.713066,-0.71081,-0.701465,-0.729823,-0.718222,-0.70791,-0.726762,-0.700176,-0.717739,-0.712744,-0.702593,-0.715,-0.731595,-0.702593,-0.721445,-0.740135,-0.694053,-0.722411,-0.707588,-0.707266,-0.711455,-0.723056,-0.70646,-0.712422,-0.720961,-0.693892,-0.730306,-0.666662,-0.720317,-0.720639,-0.698082,-0.70211,-0.73079,-0.713711,-0.715966,-0.744485,-0.707749,-0.740618,-0.698082,-0.721122,-0.712744,-0.714677,-0.703399,-0.726117,-0.714194,-0.708394,-0.714355,-0.704365,-0.723217,-0.683419,-0.708394,-0.720961,-0.695987,-0.700176,-0.716772,-0.705171,-0.684708,-0.685675,-0.681164,-0.723217,-0.695665,-0.672785,-0.734657,-0.663923,-0.696793,-0.729178,-0.694859,-0.675363,-0.715483,-0.674235,-0.70066,-0.705332,-0.682936,-0.704365,-0.676652,-0.700337,-0.69357,-0.691959,-0.695342,-0.679069,-0.683258,-0.685675,-0.681808,-0.655061,-0.706138,-0.663118,-0.703076,-0.690186,-0.664729,-0.700176,-0.684547,-0.65909,-0.684547,-0.703882,-0.653128,-0.682453,-0.677297,-0.648939,-0.671174,-0.686158,-0.641205,-0.662312,-0.676652,-0.680519,-0.673107,-0.678908,-0.659895,-0.6462,-0.659734,-0.64765,-0.641044,-0.643299,-0.650389,-0.64475,-0.656995,-0.634438,-0.654256,-0.627509,-0.648778,-0.634438,-0.645072,-0.636532,-0.634599,-0.609624,-0.62622,-0.615425,-0.634115,-0.66199,-0.586262,-0.635404,-0.608013,-0.615425,-0.644911,-0.632987,-0.596735,-0.638788,-0.606885,-0.592223,-0.619775,-0.606724,-0.629282,-0.609302,-0.611558,-0.585617,-0.601891,-0.598507,-0.603502,-0.594157,-0.598829,-0.606563,-0.567732,-0.61043,-0.595284,-0.580461,-0.604469,-0.590773,-0.568699,-0.597379,-0.597379,-0.572244,-0.591901,-0.572888,-0.600602,-0.575788,-0.591901,-0.60608,-0.596412,-0.592868,-0.620581,-0.600924,-0.59754,-0.625737,-0.606885,-0.633954,-0.645877,-0.624931,-0.657962,-0.658928,-0.657478,-0.667146,-0.688736,-0.656512,-0.688092,-0.70646,-0.670046,-0.711294,-0.700982,-0.68213,-0.696309,-0.702432,-0.645877,-0.674396,-0.666662,-0.635404,-0.661184,-0.585456,-0.607208,-0.585778,-0.549203,-0.537602,-0.521167,-0.523262,-0.481853,-0.431421,-0.454301,-0.427232,-0.372128,-0.367938,-0.332491,-0.277226,-0.284959,-0.247095,-0.190863,-0.162344,-0.130119,-0.052779,-0.0299,0.029233,0.088849,0.119462,0.190518,0.241917,0.305239,0.354865,0.39998,0.4343,0.472164,0.509062,0.539998,0.581085,0.621849,0.662775,0.701123,0.741404,0.776529,0.81246,0.840013,0.872721,0.903657,0.919609,0.952639,0.970524,0.994049,1.014511,1.025307,1.042708,1.063816,1.070744,1.08879,1.101842,1.104258,1.126172,1.126655,1.123594,1.1302,1.119565,1.116343,1.108448,1.089757,1.059143,1.036747,0.999205,0.96569,0.910102,0.870304,0.819228,0.730931,0.714013,0.633773,0.552243,0.496333,0.416898,0.311362,0.273981,0.178112,0.05469,0.017793,-0.098055,-0.182001,-0.251446,-0.330074,-0.414503,-0.466063,-0.52729,-0.634921,-0.663923,-0.710327,-0.782672,-0.826336,-0.852922,-0.899164,-0.914954,-0.936223,-0.947824,-0.949435,-0.961036,-0.957008,-0.972315,-0.953302,-0.959425,-0.963131,-0.959102,-0.960391,-0.987621,-0.980049,-0.992455,-1.001961,-0.99745,-1.002284,-1.008567,-1.016946,-1.018235,-1.033381,-1.021296,-1.02758,-1.039342,-1.044015,-1.037248,-1.036442,-1.040309,-1.057388,-1.048526,-1.050782,-1.048043,-1.059805,-1.066572,-1.054649,-1.051104,-1.069795,-1.058194,-1.062222,-1.075434,-1.061416,-1.079301,-1.09058,-1.074145,-1.083973,-1.087196,-1.080429,-1.075273,-1.073662,-1.071245,-1.073017,-1.070922,-1.077206,-1.078656,-1.074628,-1.085907,-1.071728,-1.079623,-1.076884,-1.072373,-1.065444,-1.069311,-1.050621,-1.053682,-1.051588,-1.039987,-1.042242,-1.035475,-1.025808,-0.999706,-1.017913,-0.982788,-0.970864,-0.967481,-0.947663,-0.923333,-0.91141,-0.866778,-0.89852,-0.869517,-0.831653,-0.82972,-0.810868,-0.759631,-0.788794,-0.755119,-0.736751,-0.746097,-0.711938,-0.731273,-0.735785,-0.702271,-0.673268,-0.705493,-0.656028,-0.691798,-0.672463,-0.682614,-0.653934,-0.655384,-0.664407,-0.672463,-0.652,-0.667468,-0.675363,-0.630248,-0.673591,-0.647972,-0.655061,-0.650389,-0.655545,-0.644911,-0.661345,-0.653611,-0.629443,-0.676008,-0.627348,-0.650389,-0.649422,-0.645555,-0.638305,-0.648294,-0.620259,-0.652806,-0.643622,-0.630248,-0.634921,-0.594962,-0.643944,-0.649744,-0.612364,-0.622353,-0.63621,-0.603663,-0.625576,-0.619453,-0.585939,-0.641366,-0.598346,-0.602374,-0.64056,-0.59899,-0.610269,-0.640077,-0.585939,-0.60463,-0.613169,-0.5832,-0.639432,-0.623965,-0.576111,-0.613491,-0.591901,-0.605274,-0.614619,-0.596573,-0.590612,-0.597218,-0.59754,-0.603018,-0.580944,-0.58465,-0.604952,-0.569343,-0.59464,-0.577239,-0.574822,-0.579333,-0.594962,-0.569343,-0.598829,-0.587228,-0.563865,-0.610913,-0.571277,-0.572727,-0.596573,-0.583684,-0.569182,-0.569505,-0.591095,-0.590612,-0.594157,-0.585617,-0.569988,-0.599151,-0.574338,-0.582717,-0.589806,-0.569505,-0.572083,-0.598507,-0.554842,-0.586423,-0.562576,-0.547914,-0.581589,-0.550009,-0.557259,-0.57031,-0.561771,-0.542758,-0.571116,-0.532124,-0.549203,-0.57321,-0.516656,-0.551298,-0.548881,-0.55162,-0.535507,-0.537602,-0.51585,-0.526807,-0.521006,-0.516656,-0.532285,-0.500866,-0.535024,-0.489426,-0.536796,-0.520362,-0.498127,-0.495871,-0.525357,-0.480725,-0.500382,-0.5144,-0.460907,-0.512144,-0.486042,-0.491037,-0.491198,-0.50296,-0.492971,-0.478792,-0.516656,-0.508439,-0.49716,-0.494582,-0.505216,-0.482659,-0.465418,-0.501188,-0.466707,-0.464291,-0.470574,-0.46703,-0.489909,-0.478631,-0.46284,-0.473958,-0.462357,-0.433355,-0.462518,-0.458812,-0.434322,-0.429327,-0.472508,-0.429327,-0.437383,-0.454301,-0.418048,-0.419337,-0.445922,-0.444956,-0.420143,-0.427877,-0.407736,-0.425137,-0.43271,-0.403547,-0.421593,-0.391946,-0.428038,-0.39678,-0.41257,-0.425621,-0.387918,-0.386145,-0.423848,-0.395813,-0.387273,-0.415631,-0.388562,-0.378895,-0.416598,-0.387273,-0.416114,-0.385662,-0.387757,-0.382278,-0.387112,-0.373739,-0.377928,-0.372289,-0.376478,-0.376317,-0.357788,-0.37245,-0.371966,-0.344092,-0.35247,-0.382923,-0.339097,-0.344575,-0.380989,-0.350215,-0.350859,-0.337164,-0.335069,-0.347476,-0.372772,-0.35102,-0.340708,-0.32943,-0.323468,-0.35521,-0.322179,-0.357788,-0.328302,-0.336358,-0.311867,-0.330396,-0.310417,-0.345864,-0.310739,-0.317345,-0.330396,-0.298977,-0.345381,-0.309128,-0.302361,-0.328624,-0.31799,-0.325563,-0.319601,-0.309289,-0.308967,-0.326691,-0.295433,-0.303005,-0.293821,-0.289632,-0.302844,-0.279965,-0.270781,-0.281737,-0.308806,-0.26788,-0.291082,-0.267075,-0.272231,-0.262241,-0.252574,-0.259824,-0.251768,-0.265463,-0.232272,-0.263208,-0.24065,-0.231305,-0.268203,-0.228405,-0.247256,-0.230016,-0.25064,-0.225505,-0.241939,-0.242584,-0.236783,-0.233077,-0.214548,-0.241778,-0.213743,-0.26788,-0.210359,-0.249512,-0.242745,-0.226633,-0.215193,-0.233077,-0.210359,-0.192152,-0.225505,-0.180873,-0.216643,-0.20053,-0.199241,-0.198758,-0.208748,-0.182323,-0.209876,-0.202947,-0.175717,-0.201658,-0.18474,-0.188446,-0.19038,-0.176523,-0.205686,-0.188124,-0.188768,-0.212776,-0.180068,-0.193441,-0.208264,-0.206009,-0.17894,-0.192958,-0.190863,-0.217771,-0.177812,-0.192635,-0.194891,-0.200047,-0.174912,-0.189252,-0.180229,-0.175878,-0.207942,-0.17894,-0.181679,-0.180068,-0.182323,-0.152515,-0.209231,-0.176362,-0.151871,-0.185868,-0.156382,-0.194247,-0.171689,-0.177651,-0.163472,-0.166694,-0.164116,-0.19618,-0.139787,-0.160088,-0.181518,-0.146393,-0.182484,-0.155577,-0.165889,-0.188929,-0.168467,-0.159444,-0.182484,-0.15896,-0.130925,-0.199564,-0.160088,-0.166855,-0.183612,-0.191024,-0.177167,-0.195374,-0.196019,-0.183612,-0.201819,-0.184418,-0.198275,-0.190702,-0.202625,-0.196341,-0.197308,-0.22486,-0.21487,-0.202786,-0.225666,-0.234528,-0.205042,-0.223893,-0.242423,-0.216804,-0.246129,-0.234205,-0.26208,-0.256924,-0.24919,-0.223732,-0.251929,-0.246129,-0.243067,-0.275937,-0.252412,-0.276742,-0.283026,-0.278353,-0.26498,-0.289632,-0.268686,-0.280448,-0.289793,-0.286087,-0.32524,-0.287537,-0.299783,-0.319762,-0.31654,-0.309128,-0.336841,-0.342159,-0.355693,-0.353437,-0.331847,-0.36391,-0.39259,-0.347959,-0.406447,-0.385018,-0.369227,-0.407253,-0.435288,-0.410959,-0.440283,-0.430132,-0.449789,-0.458007,-0.443667,-0.472508,-0.430938,-0.465096,-0.490715,-0.480242,-0.454784,-0.501188,-0.488781,-0.496354,-0.536635,-0.466869,-0.525034,-0.5144,-0.49571,-0.529224,-0.549042,-0.525195,-0.547431,-0.566927,-0.551781,-0.589645,-0.532607,-0.591901,-0.584328,-0.553876,-0.586906,-0.62042,-0.595768,-0.609141,-0.601407,-0.605919,-0.642655,-0.607369,-0.612364,-0.632987,-0.613814,-0.615747,-0.637821,-0.646361,-0.628476,-0.651356,-0.638627,-0.653611,-0.640077,-0.660217,-0.663923,-0.646522,-0.663923,-0.658606,-0.653611,-0.661345,-0.682936,-0.658767,-0.672785,-0.69647,-0.653934,-0.685031,-0.670207,-0.670046,-0.68213,-0.69647,-0.674235,-0.692442,-0.682291,-0.673591,-0.7237,-0.683419,-0.713711,-0.694698,-0.695342,-0.717255,-0.703882,-0.704204,-0.707427,-0.704043,-0.692281,-0.71645,-0.681325,-0.713711,-0.697759,-0.705977,-0.70936,-0.702915,-0.690992,-0.703238,-0.703399,-0.714033,-0.716289,-0.678102,-0.709682,-0.69502,-0.703399,-0.69647,-0.724023,-0.699532,-0.721767,-0.721122,-0.706138,-0.70646,-0.693731,-0.693087,-0.706299,-0.704527,-0.688897,-0.700176,-0.710327,-0.677135,-0.707105,-0.695504,-0.681486,-0.708071,-0.671818,-0.694537,-0.684547,-0.694215,-0.675363,-0.681808,-0.695504,-0.69357,-0.672302,-0.667951,-0.692281,-0.668435,-0.70211,-0.654417,-0.672624,-0.678747,-0.673913,-0.6549,-0.683742,-0.677941,-0.640721,-0.677941,-0.648455,-0.668274,-0.63911,-0.659412,-0.663762,-0.636854,-0.625898,-0.673591,-0.639594,-0.63911,-0.672302,-0.626865,-0.63621,-0.647972,-0.626381,-0.645555,-0.625737,-0.631537,-0.629926,-0.634438,-0.629926,-0.633632,-0.635727,-0.62767,-0.623481,-0.628315,-0.620581,-0.635243,-0.645877,-0.62477,-0.633149,-0.627026,-0.593351,-0.638627,-0.614942,-0.622353,-0.604952,-0.614458,-0.613653,-0.606885,-0.600763,-0.609302,-0.594157,-0.606885,-0.639916,-0.588034,-0.611558,-0.620742,-0.589806,-0.627187,-0.610591,-0.589484,-0.609786,-0.612041,-0.587873,-0.634599,-0.63186,-0.595768,-0.620742,-0.61478,-0.603341,-0.620581,-0.597057,-0.617842,-0.606563,-0.579978,-0.634599,-0.611075,-0.589967,-0.612041,-0.581267,-0.618003,-0.607208,-0.602857,-0.622998,-0.63186,-0.579494,-0.593995,-0.627026,-0.586584,-0.603018,-0.591256,-0.603502,-0.590773,-0.599635,-0.601246,-0.596896,-0.583845,-0.591417,-0.608658,-0.580461,-0.603502,-0.586423,-0.602535,-0.590451,-0.592868,-0.611236,-0.612202,-0.594801,-0.597379,-0.618325,-0.594801,-0.58175,-0.60898,-0.581911,-0.576111,-0.577239,-0.601568,-0.596896,-0.609463,-0.56596,-0.610752,-0.602857,-0.573855,-0.592868,-0.580944,-0.594479,-0.58175,-0.578366,-0.569343,-0.578366,-0.57595,-0.576272,-0.611719,-0.568377,-0.597057,-0.574822,-0.57176,-0.579978,-0.590128,-0.569505,-0.595123,-0.590451,-0.572405,-0.592706,-0.569666,-0.597218,-0.576755,-0.562737,-0.573855,-0.574499,-0.576111,-0.582878,-0.566765,-0.566443,-0.570794,-0.556615,-0.576433,-0.544208,-0.580461,-0.573049,-0.546947,-0.57176,-0.566443,-0.567249,-0.553876,-0.588356,-0.55452,-0.558548,-0.59754,-0.552748,-0.556615,-0.572083,-0.571116,-0.555003,-0.580783,-0.549525,-0.589967,-0.554198,-0.566927,-0.592706,-0.558387,-0.571438,-0.563543,-0.549686,-0.564671,-0.57885,-0.537763,-0.544208,-0.57595,-0.532929,-0.559032,-0.559998,-0.549364,-0.54598,-0.571599,-0.567893,-0.538247,-0.53728,-0.53019,-0.5861,-0.54163,-0.5774,-0.544047,-0.538569,-0.551942,-0.543564,-0.534702,-0.569827,-0.545819,-0.53873,-0.558226,-0.53873,-0.523262,-0.559515,-0.543241,-0.544853,-0.542275,-0.531157,-0.542597,-0.564993,-0.528096,-0.548236,-0.55742,-0.538569,-0.550331,-0.54598,-0.542275,-0.54163,-0.563543,-0.525195,-0.554037,-0.556776,-0.543403,-0.560159,-0.557098,-0.570471,-0.542436,-0.574177,-0.579011,-0.569182,-0.558387,-0.57595,-0.567732,-0.551459,-0.585617,-0.525034,-0.565638,-0.564671,-0.53583,-0.549364,-0.561448,-0.529868,-0.557098,-0.540019,-0.559837,-0.570794,-0.53019,-0.549042,-0.543725,-0.54872,-0.538247,-0.55887,-0.544369,-0.556454,-0.54308,-0.581267,-0.546303,-0.53873,-0.562254,-0.551136,-0.535185,-0.559193,-0.544208,-0.550814,-0.537602,-0.536313,-0.548558,-0.539213,-0.549364,-0.540502,-0.55887,-0.538247,-0.542114,-0.541791,-0.534057,-0.529868,-0.546786,-0.526323,-0.543725,-0.558548,-0.527935,-0.540825,-0.554359,-0.524229,-0.542758,-0.548558,-0.521973,-0.523262,-0.552587,-0.522134,-0.566121,-0.547592,-0.513433,-0.567732,-0.515206,-0.530996,-0.55017,-0.514239,-0.507794,-0.535991,-0.543725,-0.542758,-0.56741,-0.513111,-0.539858,-0.508116,-0.528257,-0.534218,-0.520201,-0.529707,-0.535991,-0.539858,-0.538247,-0.55742,-0.522295,-0.538569,-0.52584,-0.532607,-0.552748,-0.543564,-0.514561,-0.539858,-0.535507,-0.514239,-0.535669,-0.521006,-0.514561,-0.52439,-0.511822,-0.513433,-0.512628,-0.535991,-0.498932,-0.527935,-0.530674,-0.514722,-0.519395,-0.507955,-0.512467,-0.516173,-0.541147,-0.515045,-0.513917,-0.507633,-0.509083,-0.494099,-0.490715,-0.52149,-0.506022,-0.5086,-0.484431,-0.513111,-0.506344,-0.498127,-0.532929,-0.508116,-0.495065,-0.521651,-0.5173,-0.499255,-0.542597,-0.498449,-0.511339,-0.529546,-0.503766,-0.496838,-0.519395,-0.500382,-0.509244,-0.527935,-0.476858,-0.530513,-0.499577,-0.490715,-0.50441,-0.529062,-0.504572,-0.492326,-0.497966,-0.500382,-0.526968,-0.510211,-0.483142,-0.514884,-0.513595,-0.496032,-0.489104,-0.507311,-0.483142,-0.513433,-0.514561,-0.519234,-0.476375,-0.506666,-0.497482,-0.474603,-0.494904,-0.497966,-0.487654,-0.499255,-0.511661,-0.489909,-0.508761,-0.491037,-0.480242,-0.504572,-0.476536,-0.491198,-0.487654,-0.49426,-0.474764,-0.509083,-0.457846,-0.482014,-0.519878,-0.453495,-0.491037,-0.492326,-0.495065,-0.478953,-0.469285,-0.471702,-0.481853,-0.464774,-0.476858,-0.48282,-0.450595,-0.489104,-0.451884,-0.469285,-0.478953,-0.466385,-0.457685,-0.477503,-0.470413,-0.471058,-0.47847,-0.443989,-0.455268,-0.473797,-0.461068,-0.47138,-0.450112,-0.44415,-0.466063,-0.491521,-0.46703,-0.443828,-0.463324,-0.429166,-0.479436,-0.466869,-0.456879,-0.442055,-0.467352,-0.412086,-0.463324,-0.457685,-0.411764,-0.476375,-0.434644,-0.450112,-0.463807,-0.439961,-0.462196,-0.452367,-0.428843,-0.481209,-0.468802,-0.439316,-0.453173,-0.447211,-0.448823,-0.4369,-0.441894,-0.453173,-0.433033,-0.428682,-0.444795,-0.424332,-0.408058,-0.462679,-0.409186,-0.427554,-0.4398,-0.401936,-0.431744,-0.421754,-0.392429,-0.411442,-0.422721,-0.388401,-0.405158,-0.407253,-0.370194,-0.406447,-0.370355,-0.386468,-0.390174,-0.380828,-0.371161,-0.391785,-0.38244,-0.357788,-0.377122,-0.360366,-0.382923,-0.352309,-0.391463,-0.382601,-0.36246,-0.39114,-0.390657,-0.383567,-0.375028,-0.405158,-0.371644,-0.403063,-0.406447,-0.375995,-0.410153,-0.409347,-0.364071,-0.414342,-0.376317,-0.403386,-0.417403,-0.38824,-0.371,-0.396618,-0.374383,-0.397102,-0.398552,-0.401291,-0.38244,-0.42127,-0.372611,-0.389207,-0.400969,-0.390335,-0.404514,-0.403225,-0.379378,-0.382601,-0.399519,-0.395168,-0.400969,-0.360043,-0.384695,-0.400969,-0.370033,-0.39823,-0.378895,-0.37825,-0.380828,-0.370194,-0.373255,-0.375833,-0.357626,-0.351181,-0.382923,-0.34957,-0.364071,-0.342642,-0.390979,-0.369872,-0.368422,-0.362944,-0.366166
 18:12:17.76593,-0.371805,-0.361977,-0.388723,-0.350215,-0.341192,-0.376961,-0.357788,-0.38534,-0.368583,-0.364716,-0.374222,-0.375028,-0.356337,-0.389851,-0.366005,-0.355371,-0.385984,-0.382278,-0.374867,-0.400808,-0.378411,-0.381473,-0.408542,-0.355048,-0.369227,-0.409186,-0.347959,-0.383567,-0.394685,-0.374544,-0.386951,-0.392107,-0.371966,-0.382923,-0.374222,-0.376317,-0.377284,-0.358271,-0.370194,-0.375028,-0.361655,-0.382278,-0.363105,-0.367938,-0.387918,-0.373739,-0.373417,-0.390012,-0.380989,-0.366488,-0.368744,-0.366327,-0.364716,-0.384212,-0.377445,-0.37535,-0.372933,-0.364071,-0.367133,-0.390979,-0.352309,-0.365522,-0.379378,-0.35247,-0.352793,-0.382117,-0.344898,-0.376478,-0.376478,-0.363749,-0.37825,-0.34522,-0.384695,-0.378734,-0.364394,-0.366005,-0.375672,-0.374706,-0.376478,-0.377445,-0.381312,-0.369711,-0.358271,-0.385179,-0.411442,-0.351665,-0.387757,-0.392429,-0.3739,-0.381795,-0.35811,-0.350698,-0.394685,-0.364071,-0.368905,-0.409508,-0.355048,-0.3768,-0.395168,-0.364877,-0.386145,-0.380989,-0.359721,-0.370355,-0.398552,-0.354887,-0.405964,-0.364394,-0.375995,-0.378573,-0.385984,-0.381151,-0.373094,-0.395168,-0.361171,-0.379539,-0.363266,-0.391301,-0.352632,-0.384051,-0.389207,-0.378895,-0.385018,-0.370355,-0.366166,-0.381795,-0.380828,-0.356176,-0.40403,-0.380989,-0.384695,-0.382762,-0.366005,-0.374867,-0.376478,-0.359882,-0.354082,-0.3768,-0.353115,-0.371805,-0.3797,-0.348926,-0.357304,-0.367616,-0.351826,-0.361655,-0.371,-0.347637,-0.356499,-0.389046,-0.32798,-0.361655,-0.341514,-0.363588,-0.357788,-0.368583,-0.33523,-0.350537,-0.336358,-0.323952,-0.343125,-0.31944,-0.385018,-0.322018,-0.330719,-0.363266,-0.33813,-0.325563,-0.365683,-0.330396,-0.317668,-0.354887,-0.318796,-0.349409,-0.325079,-0.320407,-0.337969,-0.329269,-0.317184,-0.34087,-0.331041,-0.330074,-0.327496,-0.310739,-0.319923,-0.326207,-0.309611,-0.320568,-0.304455,-0.317668,-0.314929,-0.323468,-0.332169,-0.317668,-0.300911,-0.331524,-0.330719,-0.319923,-0.351504,-0.346992,-0.329591,-0.328463,-0.362299,-0.357626,-0.374867,-0.397424,-0.345864,-0.394363,-0.380989,-0.396457,-0.401613,-0.422882,-0.412248,-0.42691,-0.434966,-0.421754,-0.465096,-0.453495,-0.453173,-0.466707,-0.452206,-0.457201,-0.461068,-0.429166,-0.423687,-0.417081,-0.406125,-0.412731,-0.368422,-0.345703,-0.346348,-0.322018,-0.308806,-0.266914,-0.262241,-0.223088,-0.226955,-0.19328,-0.179423,-0.107401,-0.090805,-0.093222,-0.019104,0.004903,0.035678,0.096261,0.156521,0.163288,0.21227,0.297827,0.328441,0.423988,0.474903,0.52163,0.581246,0.636834,0.661647,0.701928,0.742693,0.780396,0.823095,0.849519,0.887061,0.914936,0.943455,0.968752,0.994532,1.011128,1.039486,1.055276,1.074772,1.095558,1.10587,1.1302,1.144057,1.150179,1.166131,1.17467,1.192072,1.204479,1.210924,1.217369,1.233965,1.236704,1.231226,1.25475,1.256039,1.265062,1.268446,1.277308,1.277308,1.281336,1.281658,1.292776,1.298576,1.28907,1.30196,1.269412,1.261517,1.224297,1.167742,1.122466,1.061882,0.940072,0.870143,0.810205,0.683238,0.611698,0.501489,0.41996,0.330213,0.22081,0.114145,0.038256,-0.061158,-0.152032,-0.218415,-0.327335,-0.388723,-0.420465,-0.521167,-0.562415,-0.612041,-0.643461,-0.683258,-0.706943,-0.740779,-0.760275,-0.769621,-0.771715,-0.788472,-0.783155,-0.779933,-0.774777,-0.752864,-0.74948,-0.744002,-0.737879,-0.729662,-0.754314,-0.756892,-0.74803,-0.764787,-0.763659,-0.768654,-0.788472,-0.784605,-0.794595,-0.805068,-0.808451,-0.796206,-0.82827,-0.795884,-0.823114,-0.833265,-0.81828,-0.823275,-0.836487,-0.827303,-0.837132,-0.82827,-0.817636,-0.834876,-0.825208,-0.844221,-0.844221,-0.83697,-0.837293,-0.83697,-0.838259,-0.833103,-0.825853,-0.837132,-0.837937,-0.832459,-0.829881,-0.827947,-0.822147,-0.818763,-0.811352,-0.797495,-0.786861,-0.781705,-0.743519,-0.748513,-0.744969,-0.702593,-0.69502,-0.665696,-0.667951,-0.629765,-0.639755,-0.60463,-0.602857,-0.579817,-0.536958,-0.567249,-0.516978,-0.492487,-0.496032,-0.50006,-0.471541,-0.485398,-0.46558,-0.449467,-0.453334,-0.443183,-0.449145,-0.420465,-0.422398,-0.423365,-0.441733,-0.429166,-0.44125,-0.430132,-0.435611,-0.436577,-0.44705,-0.457201,-0.419176,-0.448339,-0.46284,-0.40548,-0.452367,-0.453979,-0.44705,-0.453818,-0.448017,-0.429327,-0.468158,-0.457523,-0.428521,-0.453012,-0.458007,-0.447211,-0.459135,-0.450112,-0.443989,-0.442055,-0.463002,-0.4427,-0.435772,-0.421915,-0.456557,-0.447534,-0.466385,-0.442861,-0.450112,-0.45849,-0.462035,-0.430777,-0.455912,-0.442055,-0.437544,-0.465902,-0.459457,-0.436255,-0.468158,-0.456073,-0.443344,-0.455751,-0.472186,-0.454462,-0.471541,-0.469124,-0.453173,-0.460262,-0.450112,-0.461229,-0.448662,-0.452529,-0.4485,-0.461229,-0.466707,-0.470091,-0.468802,-0.457523,-0.463646,-0.437544,-0.469608,-0.441894,-0.43126,-0.443022,-0.452851,-0.460101,-0.453334,-0.450595,-0.430616,-0.459296,-0.45124,-0.460907,-0.478308,-0.468319,-0.473636,-0.457523,-0.454301,-0.467191,-0.462196,-0.453495,-0.459779,-0.469447,-0.459296,-0.486203,-0.467352,-0.451884,-0.476697,-0.463968,-0.427715,-0.484431,-0.465741,-0.445922,-0.475247,-0.444795,-0.454784,-0.464291,-0.460262,-0.452529,-0.458329,-0.449467,-0.449789,-0.460424,-0.446728,-0.46993,-0.449789,-0.440605,-0.455107,-0.446567,-0.450273,-0.480564,-0.434483,-0.460746,-0.486203,-0.447695,-0.47138,-0.43416,-0.446245,-0.472186,-0.448339,-0.453012,-0.451723,-0.445117,-0.435127,-0.466224,-0.398391,-0.444311,-0.453818,-0.423687,-0.450595,-0.462679,-0.4369,-0.427232,-0.441733,-0.433033,-0.437222,-0.391624,-0.456879,-0.40113,-0.441733,-0.453979,-0.426588,-0.434644,-0.4398,-0.417081,-0.426749,-0.441733,-0.414826,-0.417403,-0.441089,-0.404352,-0.440444,-0.419015,-0.427877,-0.425782,-0.436416,-0.437383,-0.410153,-0.447211,-0.412409,-0.405641,-0.420948,-0.403386,-0.394524,-0.414664,-0.397585,-0.41692,-0.410475,-0.388562,-0.407736,-0.393718,-0.405964,-0.394685,-0.390335,-0.408219,-0.400808,-0.409508,-0.413053,-0.409831,-0.394685,-0.417565,-0.394846,-0.427715,-0.399519,-0.378734,-0.413214,-0.408542,-0.385018,-0.385179,-0.403547,-0.35811,-0.391624,-0.394524,-0.370516,-0.392913,-0.365199,-0.396941,-0.382762,-0.389851,-0.371,-0.379862,-0.36536,-0.360043,-0.370839,-0.364555,-0.356982,-0.358432,-0.37825,-0.344898,-0.352793,-0.367938,-0.33668,-0.360204,-0.354082,-0.35811,-0.319118,-0.356015,-0.328946,-0.354565,-0.34522,-0.341675,-0.327013,-0.355371,-0.312512,-0.29656,-0.33523,-0.317345,-0.318473,-0.327496,-0.30365,-0.331202,-0.335391,-0.289793,-0.328141,-0.31799,-0.281254,-0.310417,-0.316862,-0.30945,-0.317829,-0.309128,-0.321051,-0.304617,-0.290599,-0.313478,-0.302844,-0.256924,-0.305744,-0.274648,-0.275937,-0.295916,-0.273681,-0.275292,-0.279481,-0.278998,-0.264819,-0.280126,-0.258857,-0.240973,-0.278837,-0.258696,-0.257729,-0.254829,-0.262885,-0.228566,-0.24629,-0.262885,-0.233077,-0.255151,-0.249996,-0.264336,-0.212131,-0.25499,-0.240489,-0.24774,-0.231466,-0.222766,-0.223571,-0.226149,-0.238395,-0.23195,-0.257729,-0.22051,-0.222282,-0.233883,-0.219704,-0.213743,-0.225505,-0.199564,-0.218093,-0.22341,-0.19618,-0.219221,-0.235817,-0.198758,-0.230661,-0.212615,-0.232111,-0.213098,-0.221315,-0.232111,-0.219382,-0.198597,-0.208909,-0.225505,-0.201658,-0.216321,-0.193441,-0.204397,-0.209714,-0.217448,-0.204558,-0.178295,-0.211487,-0.219543,-0.186996,-0.198275,-0.184901,-0.218576,-0.224216,-0.19908,-0.173945,-0.21197,-0.189574,-0.186513,-0.176684,-0.208909,-0.202625,-0.173462,-0.222927,-0.196986,-0.177973,-0.203592,-0.207781,-0.199886,-0.220671,-0.202303,-0.194247,-0.252412,-0.189252,-0.21487,-0.223249,-0.206492,-0.215998,-0.228888,-0.196825,-0.209231,-0.189735,-0.212937,-0.240973,-0.17894,-0.217932,-0.19183,-0.208103,-0.216643,-0.20907,-0.199725,-0.214387,-0.207942,-0.198436,-0.244034,-0.202947,-0.225827,-0.245001,-0.221154,-0.220188,-0.217126,-0.240811,-0.232433,-0.240006,-0.217932,-0.240006,-0.229372,-0.234528,-0.236783,-0.234205,-0.264658,-0.258213,-0.244517,-0.265302,-0.273197,-0.267236,-0.280287,-0.285443,-0.290921,-0.324918,-0.306711,-0.294949,-0.309128,-0.312351,-0.301072,-0.332491,-0.354726,-0.312351,-0.353437,-0.322824,-0.367294,-0.359721,-0.361816,-0.401936,-0.381956,-0.361171,-0.421109,-0.394685,-0.398391,-0.434966,-0.398069,-0.434322,-0.436738,-0.422237,-0.440283,-0.454784,-0.449145,-0.483303,-0.482659,-0.444311,-0.503444,-0.481047,-0.479436,-0.511983,-0.488459,-0.524873,-0.521812,-0.532929,-0.526484,-0.551781,-0.554359,-0.545336,-0.581911,-0.56161,-0.582072,-0.584006,-0.589484,-0.608658,-0.593834,-0.613008,-0.623965,-0.627348,-0.61897,-0.651678,-0.633793,-0.647166,-0.665051,-0.679552,-0.675685,-0.696309,-0.710649,-0.721606,-0.753025,-0.751736,-0.769298,-0.780577,-0.804907,-0.804907,-0.808613,-0.823275,-0.81828,-0.826981,-0.825208,-0.84696,-0.842932,-0.858722,-0.849377,-0.856305,-0.878702,-0.875962,-0.896103,-0.901742,-0.897231,-0.908348,-0.92285,-0.916566,-0.933967,-0.935901,-0.943957,-0.953624,-0.958619,-0.960391,-0.964903,-0.983593,-0.977471,-0.991327,-0.983754,-0.986977,-0.996805,-0.997933,-1.005667,-1.004378,-1.030319,-1.02323,-1.017268,-1.039503,-1.030319,-1.036925,-1.043854,-1.048365,-1.054971,-1.059805,-1.044498,-1.065928,-1.066089,-1.069956,-1.080429,-1.086068,-1.073823,-1.068183,-1.084779,-1.062544,-1.079623,-1.082684,-1.078818,-1.09203,-1.082684,-1.079945,-1.081396,-1.099764,-1.100247,-1.098797,-1.092513,-1.092835,-1.094769,-1.106853,-1.111203,-1.107175,-1.11926,-1.11362,-1.117326,-1.115715,-1.112815,-1.117487,-1.100408,-1.121193,-1.114426,-1.09638,-1.118293,-1.111848,-1.110237,-1.123771,-1.107498,-1.124416,-1.130216,-1.120549,-1.11781,-1.107014,-1.116521,-1.102825,-1.099925,-1.106853,-1.103792,-1.09348,-1.099764,-1.099925,-1.075917,-1.090741,-1.059966,-1.069311,-1.062222,-1.044337,-1.050621,-1.044659,-1.009051,-1.008084,-1.024196,-0.965225,-0.98746,-0.961197,-0.973765,-0.945729,-0.937028,-0.914149,-0.902709,-0.922688,-0.902387,-0.879991,-0.861622,-0.875962,-0.865489,-0.884985,-0.840354,-0.853405,-0.849377,-0.843415,-0.848088,-0.849699,-0.847121,-0.813769,-0.821019,-0.854694,-0.834876,-0.829236,-0.830042,-0.809418,-0.826014,-0.831814,-0.804907,-0.806518,-0.82972,-0.800395,-0.822147,-0.812963,-0.814735,-0.822308,-0.827786,-0.815863,-0.81393,-0.812641,-0.817313,-0.839387,-0.797656,-0.845832,-0.811513,-0.812157,-0.830687,-0.808935,-0.80394,-0.825208,-0.814252,-0.789278,-0.834392,-0.80829,-0.810224,-0.822792,-0.799429,-0.796045,-0.804585,-0.789922,-0.803457,-0.807001,-0.792178,-0.815541,-0.799267,-0.788472,-0.819891,-0.7954,-0.798462,-0.814896,-0.808451,-0.77236,-0.800556,-0.7867,-0.797817,-0.793145,-0.77091,-0.812963,-0.789761,-0.811513,-0.80249,-0.787505,-0.801684,-0.806679,-0.794111,-0.797334,-0.820214,-0.770104,-0.812318,-0.796206,-0.782833,-0.7925,-0.801362,-0.773326,-0.813446,-0.787344,-0.76527,-0.807807,-0.762048,-0.777677,-0.785089,-0.794111,-0.765593,-0.781222,-0.80104,-0.775582,-0.775421,-0.754958,-0.800718,-0.766076,-0.776549,-0.769621,-0.771232,-0.791372,-0.791211,-0.770104,-0.762209,-0.775099,-0.769943,-0.758181,-0.757536,-0.782994,-0.767848,-0.771876,-0.785733,-0.76672,-0.759631,-0.759792,-0.77236,-0.760759,-0.760437,-0.770587,-0.760114,-0.758342,-0.754314,-0.762048,-0.77091,-0.762048,-0.737879,-0.764465,-0.738524,-0.738524,-0.77961,-0.722572,-0.758181,-0.758342,-0.728051,-0.735946,-0.75947,-0.738201,-0.73224,-0.741585,-0.743196,-0.756408,-0.717739,-0.754475,-0.763498,-0.736107,-0.758503,-0.736751,-0.743519,-0.764304,-0.737718,-0.737879,-0.756731,-0.72934,-0.738846,-0.759631,-0.722572,-0.731918,-0.734173,-0.733851,-0.731273,-0.738524,-0.724506,-0.740779,-0.741907,-0.723378,-0.753186,-0.722411,-0.722895,-0.735623,-0.73659,-0.723861,-0.735623,-0.72789,-0.710649,-0.749641,-0.718222,-0.735946,-0.747224,-0.731918,-0.737396,-0.735623,-0.717255,-0.725473,-0.762692,-0.751252,-0.757214,-0.725634,-0.742391,-0.747869,-0.725634,-0.722411,-0.752058,-0.743841,-0.735785,-0.742068,-0.715322,-0.729823,-0.734496,-0.743841,-0.757697,-0.721928,-0.743357,-0.755925,-0.718222,-0.742552,-0.741424,-0.706138,-0.730629,-0.767365,-0.731112,-0.75238,-0.734173,-0.718061,-0.746902,-0.732562,-0.726278,-0.730306,-0.70936,-0.70066,-0.738524,-0.713227,-0.722734,-0.733529,-0.711455,-0.721928,-0.726601,-0.711777,-0.71935,-0.73804,-0.714355,-0.699048,-0.726278,-0.69792,-0.713066,-0.721445,-0.725312,-0.707749,-0.727406,-0.719994,-0.711133,-0.702593,-0.710327,-0.727245,-0.699048,-0.70791,-0.711133,-0.689542,-0.698726,-0.725795,-0.69212,-0.70936,-0.705171,-0.70501,-0.734173,-0.696954,-0.707105,-0.704204,-0.708232,-0.698887,-0.688736,-0.708877,-0.711938,-0.70501,-0.678102,-0.714033,-0.684064,-0.72934,-0.690831,-0.694859,-0.702432,-0.685836,-0.691637,-0.699854,-0.687931,-0.694859,-0.699371,-0.691475,-0.68777,-0.686803,-0.650389,-0.684064,-0.68358,-0.658767,-0.661829,-0.683097,-0.661345,-0.67633,-0.681808,-0.67069,-0.681325,-0.690509,-0.682453,-0.658445,-0.666179,-0.66344,-0.66779,-0.648939,-0.684386,-0.678908,-0.66924,-0.691959,-0.680358,-0.650228,-0.664729,-0.672463,-0.634921,-0.658445,-0.645072,-0.656028,-0.693892,-0.634276,-0.648133,-0.63911,-0.660701,-0.660701,-0.628637,-0.640399,-0.665373,-0.634276,-0.638305,-0.679391,-0.613653,-0.658928,-0.622192,-0.641366,-0.666824,-0.641044,-0.640238,-0.658445,-0.631215,-0.650711,-0.659412,-0.622192,-0.654739,-0.655545,-0.636854,-0.672302,-0.648778,-0.616553,-0.650228,-0.640077,-0.607208,-0.648455,-0.651678,-0.623803,-0.637338,-0.627187,-0.63621,-0.64056,-0.643138,-0.632021,-0.66054,-0.61752,-0.625898,-0.655384,-0.63766,-0.656512,-0.646361,-0.628315,-0.627187,-0.638466,-0.626865,-0.631698,-0.630409,-0.623965,-0.638627,-0.615264,-0.651356,-0.624126,-0.612041,-0.64056,-0.624448,-0.618647,-0.647005,-0.60753,-0.634438,-0.654417,-0.605435,-0.632826,-0.633149,-0.612364,-0.652967,-0.642655,-0.61752,-0.635243,-0.633471,-0.613491,-0.645555,-0.638627,-0.621064,-0.644911,-0.645716,-0.648455,-0.648455,-0.654578,-0.645072,-0.65345,-0.632504,-0.64201,-0.642977,-0.632021,-0.616069,-0.606885,-0.649422,-0.602213,-0.635727,-0.603018,-0.612847,-0.605596,-0.5861,-0.626381,-0.614458,-0.597218,-0.606724,-0.59464,-0.601246,-0.596735,-0.586745,-0.588678,-0.580783,-0.585295,-0.630571,-0.557904,-0.589645,-0.60753,-0.591417,-0.576111,-0.599313,-0.582556,-0.600279,-0.592868,-0.586423,-0.60044,-0.583361,-0.576111,-0.594479,-0.609302,-0.60044,-0.588356,-0.595284,-0.609463,-0.581911,-0.568377,-0.576755,-0.57321,-0.576111,-0.584973,-0.549525,-0.572244,-0.549847,-0.552103,-0.562093,-0.554037,-0.526646,-0.556776,-0.549203,-0.518428,-0.552103,-0.531802,-0.518589,-0.522295,-0.525034,-0.510694,-0.526323,-0.532607,-0.49426,-0.524068,-0.48282,-0.511661,-0.5115,-0.513595,-0.498771,-0.506022,-0.50715,-0.499255,-0.539697,-0.514884,-0.526646,-0.511339,-0.531802,-0.52874,-0.521006,-0.530351,-0.528418,-0.513917,-0.544208,-0.510372,-0.529062,-0.552587,-0.493454,-0.540502,-0.54018,-0.507633,-0.538247,-0.530513,-0.501671,-0.550009,-0.534702,-0.523584,-0.552264,-0.534218,-0.515689,-0.537924,-0.539858,-0.53164,-0.518912,-0.525357,-0.518751,-0.510855,-0.523584,-0.549847,-0.535024,-0.52149,-0.518751,-0.508116,-0.527935,-0.523584,-0.515689,-0.521006,-0.522618,-0.501994,-0.484914,-0.520362,-0.481531,-0.505861,-0.518106,-0.495388,-0.49281,-0.500544,-0.495388,-0.509083,-0.505699,-0.478953,-0.532446,-0.514078,-0.49571,-0.508439,-0.50296,-0.505699,-0.528579,-0.512467,-0.485398,-0.53019,-0.50151,-0.535024,-0.525679,-0.494904,-0.552587,-0.514239,-0.518751,-0.54598,-0.499738,-0.519717,-0.560804,-0.5086,-0.531318,-0.533413,-0.506827,-0.52294,-0.516817,-0.551781,-0.549042,-0.533413,-0.518106,-0.523745,-0.530029,-0.515206,-0.539213,-0.52439,-0.53164,-0.507311,-0.520362,-0.524068,-0.512789,-0.519234,-0.524712,-0.526484,-0.520684,-0.517784,-0.499093,-0.522295,-0.499899,-0.494421,-0.526807,-0.501671,-0.498127,-0.527773,-0.500382,-0.494743,-0.534863,-0.514722,-0.504894,-0.512467,-0.50006,-0.514561,-0.514722,-0.507794,-0.512467,-0.532446,-0.525034,-0.536152,-0.561448,-0.493776,-0.531318,-0.508761,-0.530513,-0.552425,-0.527612,-0.504733,-0.53728,-0.489265,-0.491037,-0.557743,-0.488781,-0.530835,-0.525518,-0.496032,-0.521651,-0.527935,-0.499577,-0.522295,-0.515045,-0.492165,-0.549364,-0.506344,-0.508761,-0.512144,-0.507955,-0.49861,-0.516656,-0.5086,-0.500866,-0.509566,-0.50151,-0.519878,-0.506344,-0.516334,-0.5086,-0.488137,-0.5086,-0.479436,-0.519073,-0.514884,-0.475247,-0.483464,-0.485881,-0.514884,-0.491359,-0.497643,-0.473314,-0.498449,-0.483464,-0.471863,-0.501994,-0.48282,-0.464291,-0.495065,-0.463163,-0.493132,-0.499093,-0.469447,-0.494099,-0.497482,-0.474925,-0.47573,-0.499577,-0.465096,-0.48427,-0.504249,-0.460907,-0.484753,-0.480725,-0.475408,-0.483464,-0.476214,-0.451401,-0.484109,-0.47573,-0.45559,-0.505861,-0.45559,-0.478308,-0.465741,-0.472669,-0.469124,-0.457201,-0.476697,-0.466224,-0.476053,-0.480081,-0.482175,-0.439155,-0.470897,-0.467835,-0.48282,-0.484109,-0.440928,-0.464613,-0.477181,-0.470252,-0.468158,-0.498449,-0.451723,-0.453012,-0.48137,-0.46558,-0.481853,-0.45269,-0.455912,-0.474119,-0.458812,-0.448823,-0.446406,-0.468158,-0.47573,-0.461713,-0.456073,-0.476697,-0.453495,-0.459296,-0.476214,-0.466385,-0.449951,-0.454784,-0.490393,-0.482336,-0.510855,-0.495065,-0.494421,-0.506666,-0.521167,-0.507633,-0.546786,-0.507955,-0.530674,-0.575144,-0.524712,-0.569666,-0.588034,-0.581911,-0.586906,-0.589645,-0.576111,-0.587389,-0.580783,-0.55742,-0.612364,-0.549847,-0.561932,-0.578205,-0.571116,-0.55597,-0.518106,-0.504572,-0.485559,-0.506022,-0.479759,-0.473636,-0.399358,-0.416437,-0.380828,-0.360043,-0.347315,-0.29366,-0.290599,-0.265947,-0.217448,-0.184257,-0.173945,-0.119163,-0.066958,-0.051168,0.00442,0.032133,0.118335,0.156843,0.226127,0.273659,0.33972,0.405297,0.459435,0.539353,0.571578,0.620883,0.662936,0.695645,0.735926,0.781363,0.814877,0.848875,0.883517,0.907524,0.940716,0.961179,0.986153,1.013061,1.031591,1.047703,1.070422,1.082506,1.101519,1.116182,1.129555,1.151146,1.157108,1.160652,1.181277,1.185466,1.198678,1.211729,1.208829,1.217852,1.228648,1.226553,1.243149,1.249272,1.243149,1.256683,1.2591,1.266996,1.271185,1.269735,1.252494,1.234931,1.190944,1.155819,1.104581,0.995338,0.972135,0.862731,0.773629,0.69355,0.60332,0.475226,0.404008,0.285904,0.185524,0.113823,-0.025227,-0.093866,-0.186996,-0.278514,-0.379217,-0.402258,-0.506183,-0.574661,-0.619775,-0.687609,-0.72225,-0.751414,-0.781866,-0.811352,-0.82827,-0.831976,-0.840515,-0.851633,-0.851472,-0.849538,-0.831653,-0.811191,-0.834715,-0.823275,-0.827142,-0.824725,-0.824081,-0.828753,-0.844866,-0.8555,-0.857111,-0.876768,-0.864039,-0.885147,-0.883696,-0.872579,-0.888208,-0.894008,-0.875801,-0.900131,-0.896747,-0.897231,-0.910926,-0.905932,-0.902387,-0.917855,-0.920272,-0.910926,-0.91721,-0.928005,-0.926555,-0.928167,-0.934128,-0.937995,-0.930261,-0.922688,-0.931711,-0.931389,-0.937995,-0.93864,-0.946535,-0.935578,-0.93864,-0.938317,-0.938479,-0.936384,-0.936545,-0.935739,-0.924461,-0.931067,-0.901742,-0.918016,-0.913827,-0.903192,-0.887724,-0.868228,-0.865651,-0.841643,-0.847605,-0.810224,-0.805712,-0.770265,-0.769137,-0.732401,-0.722734,-0.68922,-0.690992,-0.689059,-0.634276,-0.64475,-0.619775,-0.605435,-0.60463,-0.599474,-0.549364,-0.592706,-0.567249,-0.542275,-0.588839,-0.513272,-0.563382,-0.579172,-0.532768,-0.536152,-0.541147,-0.527129,-0.540825,-0.565638,-0.545658,-0.569021,-0.559354,-0.539374,-0.565638,-0.547431,-0.55597,-0.5774,-0.560321,-0.56741,-0.57031,-0.568377,-0.572566,-0.566765,-0.556776,-0.589162,-0.547431,-0.597218,-0.576111,-0.593673,-0.568699,-0.5774,-0.593673,-0.577077,-0.589323,-0.564188,-0.592384,-0.578044,-0.588839,-0.57031,-0.584167,-0.579011,-0.578366,-0.608819,-0.584811,-0.601407,-0.565638,-0.601407,-0.596573,-0.579172,-0.619292,-0.602052,-0.574016,-0.59899,-0.604791,-0.588517,-0.62042,-0.618647,-0.596735,-0.621225,-0.613008,-0.597701,-0.622192,-0.624448,-0.622192,-0.627831,-0.61752
 18:12:18.76498,-0.623159,-0.615747,-0.603341,-0.634276,-0.600763,-0.610752,-0.635404,-0.622192,-0.627026,-0.632504,-0.601568,-0.616392,-0.629765,-0.597218,-0.618809,-0.592868,-0.631054,-0.599474,-0.599313,-0.618003,-0.603018,-0.603341,-0.608497,-0.625254,-0.588195,-0.615425,-0.605274,-0.620098,-0.607852,-0.610913,-0.623481,-0.62622,-0.612525,-0.62622,-0.629443,-0.617358,-0.628959,-0.627993,-0.590773,-0.636371,-0.627509,-0.612202,-0.612202,-0.625576,-0.631054,-0.617036,-0.637982,-0.605919,-0.622192,-0.61333,-0.628959,-0.628959,-0.629282,-0.613008,-0.63911,-0.64056,-0.621225,-0.649261,-0.619614,-0.629765,-0.638466,-0.636371,-0.63476,-0.63331,-0.615747,-0.640077,-0.626865,-0.623803,-0.639916,-0.601729,-0.617197,-0.615747,-0.60898,-0.608658,-0.59609,-0.591901,-0.619775,-0.589806,-0.582233,-0.64056,-0.594479,-0.602535,-0.610108,-0.588356,-0.598829,-0.613491,-0.621387,-0.608497,-0.593834,-0.601729,-0.603502,-0.601085,-0.592223,-0.592545,-0.59609,-0.604146,-0.602374,-0.624609,-0.60898,-0.585778,-0.610108,-0.587067,-0.598185,-0.562254,-0.595284,-0.604469,-0.598024,-0.601246,-0.618164,-0.589323,-0.589806,-0.592706,-0.574016,-0.603985,-0.583039,-0.567732,-0.59174,-0.565315,-0.586745,-0.574016,-0.579333,-0.587712,-0.591095,-0.549525,-0.569343,-0.561771,-0.55597,-0.590128,-0.544853,-0.562415,-0.570955,-0.557743,-0.546786,-0.567571,-0.538408,-0.55742,-0.580461,-0.550814,-0.541952,-0.544691,-0.538085,-0.526807,-0.543886,-0.532446,-0.532929,-0.53164,-0.514561,-0.567893,-0.50715,-0.538247,-0.552587,-0.524551,-0.520523,-0.550653,-0.526323,-0.516817,-0.536313,-0.530029,-0.531963,-0.521167,-0.543241,-0.52149,-0.525518,-0.529546,-0.539052,-0.527129,-0.510694,-0.533574,-0.496032,-0.512628,-0.500705,-0.509244,-0.529546,-0.493132,-0.515367,-0.498288,-0.488137,-0.515689,-0.484753,-0.500382,-0.507794,-0.48427,-0.457685,-0.513111,-0.456234,-0.501671,-0.490393,-0.473475,-0.471702,-0.50006,-0.453818,-0.464935,-0.473636,-0.44705,-0.512306,-0.463968,-0.462035,-0.466385,-0.47283,-0.457362,-0.466063,-0.47138,-0.447373,-0.475408,-0.446567,-0.464129,-0.454784,-0.450917,-0.440766,-0.450917,-0.442861,-0.439316,-0.449789,-0.437705,-0.42981,-0.458651,-0.435772,-0.449145,-0.422721,-0.433838,-0.434483,-0.440444,-0.4398,-0.422237,-0.407414,-0.42981,-0.422882,-0.416114,-0.441733,-0.402419,-0.395652,-0.427554,-0.408381,-0.387757,-0.422237,-0.393396,-0.391301,-0.423687,-0.381312,-0.411281,-0.381312,-0.374222,-0.406447,-0.417081,-0.367133,-0.426749,-0.391785,-0.379217,-0.423043,-0.378895,-0.395168,-0.378411,-0.40693,-0.401936,-0.378089,-0.400485,-0.405319,-0.384373,-0.402419,-0.423526,-0.37825,-0.40113,-0.417726,-0.389529,-0.419015,-0.393396,-0.387112,-0.391624,-0.421109,-0.392429,-0.419176,-0.388562,-0.377767,-0.40967,-0.392752,-0.409992,-0.40258,-0.391301,-0.377122,-0.394846,-0.391301,-0.367455,-0.434966,-0.393396,-0.384534,-0.408864,-0.402741,-0.38244,-0.395168,-0.390657,-0.398391,-0.396457,-0.380828,-0.398713,-0.3739,-0.392107,-0.378895,-0.375833,-0.380667,-0.386629,-0.376478,-0.400163,-0.398874,-0.389046,-0.398552,-0.395652,-0.370516,-0.414342,-0.386145,-0.395491,-0.401774,-0.404836,-0.390818,-0.41547,-0.418209,-0.41257,-0.421109,-0.412086,-0.440766,-0.428521,-0.467835,-0.414987,-0.445117,-0.447211,-0.45124,-0.464935,-0.472186,-0.475086,-0.470413,-0.495388,-0.487009,-0.5144,-0.530029,-0.504249,-0.520362,-0.547431,-0.525195,-0.526001,-0.568377,-0.523584,-0.576272,-0.582878,-0.558548,-0.568699,-0.580944,-0.573855,-0.601407,-0.607852,-0.594801,-0.62477,-0.622514,-0.625415,-0.6491,-0.626704,-0.659573,-0.65909,-0.663762,-0.669885,-0.688897,-0.677619,-0.686803,-0.712099,-0.696148,-0.715161,-0.719511,-0.731918,-0.73079,-0.751736,-0.762048,-0.771876,-0.787183,-0.806196,-0.82682,-0.827464,-0.859206,-0.857111,-0.880957,-0.880635,-0.895458,-0.909476,-0.904804,-0.920594,-0.910282,-0.93155,-0.916405,-0.936545,-0.941218,-0.943635,-0.964903,-0.972153,-0.968125,-0.991166,-0.982465,-1.001639,-1.011629,-0.997772,-1.015012,-1.02323,-1.017752,-1.03757,-1.032575,-1.045787,-1.059966,-1.057871,-1.053682,-1.062866,-1.072695,-1.073662,-1.077045,-1.061738,-1.078495,-1.082362,-1.093641,-1.097991,-1.096541,-1.106692,-1.101053,-1.107014,-1.103631,-1.117165,-1.103792,-1.108464,-1.110881,-1.117165,-1.128444,-1.140689,-1.135855,-1.143106,-1.139239,-1.116521,-1.131183,-1.108948,-1.126027,-1.141172,-1.141817,-1.145201,-1.145201,-1.139078,-1.145684,-1.141495,-1.117326,-1.130055,-1.137306,-1.139884,-1.157446,-1.165019,-1.140045,-1.148262,-1.158574,-1.145845,-1.145845,-1.136661,-1.131988,-1.142784,-1.133277,-1.132311,-1.139078,-1.144234,-1.146006,-1.158091,-1.145523,-1.15084,-1.161635,-1.143106,-1.148906,-1.145845,-1.154385,-1.148906,-1.141011,-1.144717,-1.145523,-1.139561,-1.144556,-1.141495,-1.133116,-1.15229,-1.130861,-1.138272,-1.136178,-1.121999,-1.128927,-1.134889,-1.115876,-1.117487,-1.13795,-1.112815,-1.128927,-1.122965,-1.118293,-1.115554,-1.129249,-1.107498,-1.114265,-1.108787,-1.101536,-1.105403,-1.101053,-1.084135,-1.101053,-1.089774,-1.076884,-1.085101,-1.072373,-1.056582,-1.064639,-1.040792,-1.036925,-1.04627,-1.018235,-1.033381,-1.032253,-1.015979,-1.003895,-0.999061,-0.994066,-1.006956,-0.997933,-0.985849,-1.002284,-0.968448,-1.000511,-0.970703,-0.978437,-0.995678,-0.984238,-0.964097,-0.996,-0.970381,-0.977632,-0.991649,-0.963131,-0.963614,-0.977471,-0.976987,-0.984882,-0.98311,-0.977954,-0.967481,-0.958941,-0.966514,-0.968609,-0.972798,-0.963292,-0.965547,-0.963775,-0.97022,-0.954269,-0.966353,-0.951207,-0.967159,-0.953463,-0.966997,-0.973765,-0.956524,-0.964581,-0.942023,-0.96877,-0.960069,-0.96442,-0.936545,-0.966031,-0.952174,-0.914471,-0.968931,-0.916082,-0.957169,-0.930422,-0.94299,-0.937834,-0.949113,-0.917694,-0.953946,-0.94154,-0.932839,-0.972959,-0.926716,-0.928328,-0.941218,-0.917694,-0.949435,-0.944762,-0.934289,-0.932356,-0.9272,-0.919788,-0.929133,-0.90142,-0.926878,-0.919466,-0.912538,-0.947018,-0.933806,-0.926878,-0.918821,-0.919788,-0.887563,-0.927844,-0.91286,-0.880474,-0.923011,-0.884502,-0.926878,-0.918983,-0.931067,-0.898359,-0.895458,-0.927039,-0.905932,-0.936706,-0.894169,-0.910604,-0.921399,-0.908187,-0.890947,-0.900776,-0.919305,-0.903354,-0.910443,-0.888852,-0.916243,-0.888369,-0.90722,-0.910121,-0.90287,-0.906254,-0.908509,-0.893042,-0.909476,-0.901903,-0.89707,-0.921399,-0.890625,-0.869195,-0.913827,-0.861945,-0.88418,-0.898842,-0.885147,-0.900292,-0.903676,-0.859206,-0.894653,-0.878863,-0.863717,-0.912699,-0.883858,-0.878379,-0.880313,-0.874029,-0.890141,-0.891108,-0.850505,-0.886597,-0.871612,-0.856144,-0.891914,-0.858561,-0.86984,-0.870968,-0.865651,-0.881602,-0.887563,-0.883696,-0.879507,-0.916566,-0.867584,-0.887563,-0.870968,-0.890464,-0.878702,-0.901098,-0.859528,-0.876124,-0.874673,-0.862911,-0.866939,-0.852761,-0.875962,-0.870968,-0.865167,-0.859044,-0.860333,-0.871612,-0.859689,-0.860495,-0.871612,-0.90287,-0.835359,-0.873707,-0.86839,-0.844382,-0.862589,-0.854372,-0.860495,-0.863073,-0.871934,-0.858239,-0.86839,-0.862911,-0.848249,-0.880313,-0.859044,-0.8584,-0.8613,-0.853244,-0.869356,-0.861784,-0.842932,-0.861945,-0.877251,-0.833426,-0.876285,-0.838421,-0.843415,-0.8555,-0.837615,-0.866778,-0.856628,-0.82682,-0.847605,-0.866617,-0.821503,-0.862589,-0.833909,-0.844543,-0.834554,-0.842126,-0.849538,-0.838098,-0.837615,-0.838098,-0.861784,-0.810868,-0.848894,-0.850021,-0.834231,-0.857594,-0.828592,-0.824081,-0.836004,-0.821341,-0.812641,-0.853888,-0.808451,-0.831976,-0.840032,-0.812318,-0.812157,-0.840354,-0.815219,-0.808129,-0.82537,-0.825047,-0.827303,-0.807485,-0.822308,-0.812963,-0.80249,-0.828431,-0.810385,-0.827625,-0.802168,-0.829398,-0.819247,-0.841643,-0.821019,-0.802007,-0.843093,-0.812157,-0.827142,-0.835037,-0.796528,-0.805551,-0.826659,-0.804585,-0.820214,-0.825692,-0.768171,-0.813285,-0.807968,-0.802329,-0.819408,-0.781383,-0.798784,-0.808774,-0.772199,-0.785733,-0.803296,-0.791211,-0.818441,-0.794434,-0.7896,-0.813124,-0.799429,-0.791211,-0.787183,-0.789278,-0.802168,-0.804907,-0.790567,-0.787667,-0.815541,-0.810385,-0.822953,-0.766882,-0.79959,-0.778644,-0.794434,-0.793306,-0.782994,-0.810063,-0.777677,-0.786216,-0.780577,-0.784927,-0.783961,-0.804746,-0.764465,-0.7896,-0.783961,-0.781866,-0.809579,-0.763337,-0.805874,-0.787505,-0.767043,-0.804746,-0.790889,-0.779771,-0.792984,-0.77961,-0.770748,-0.81393,-0.751575,-0.785733,-0.774777,-0.766237,-0.771393,-0.784283,-0.761887,-0.763981,-0.768654,-0.763981,-0.799912,-0.746419,-0.780416,-0.793145,-0.741102,-0.785089,-0.782994,-0.750286,-0.765109,-0.773488,-0.763176,-0.787183,-0.761242,-0.749158,-0.76672,-0.744808,-0.74948,-0.769459,-0.760598,-0.775743,-0.775099,-0.779449,-0.757375,-0.787667,-0.756731,-0.771393,-0.754958,-0.770265,-0.749158,-0.756086,-0.767204,-0.773165,-0.756086,-0.747547,-0.75802,-0.725956,-0.772199,-0.754636,-0.728373,-0.731273,-0.755925,-0.71645,-0.729178,-0.724345,-0.69792,-0.75802,-0.699693,-0.723539,-0.721445,-0.722734,-0.695181,-0.714838,-0.684225,-0.694537,-0.702432,-0.691153,-0.712422,-0.695181,-0.696148,-0.725634,-0.694537,-0.677941,-0.699371,-0.668274,-0.674719,-0.702915,-0.679069,-0.706138,-0.693731,-0.665857,-0.687609,-0.681486,-0.679069,-0.696309,-0.692603,-0.675363,-0.710327,-0.688736,-0.702432,-0.688575,-0.680841,-0.704527,-0.684064,-0.704365,-0.698565,-0.689059,-0.688897,-0.70791,-0.690025,-0.691475,-0.711133,-0.678908,-0.714516,-0.673913,-0.690509,-0.690186,-0.657478,-0.66924,-0.686803,-0.654739,-0.671818,-0.686803,-0.651678,-0.669724,-0.667307,-0.662795,-0.657639,-0.66634,-0.637821,-0.652645,-0.675685,-0.651678,-0.671818,-0.652322,-0.63186,-0.646039,-0.651678,-0.65635,-0.642172,-0.648133,-0.651517,-0.669079,-0.652161,-0.663118,-0.653128,-0.642494,-0.639271,-0.652483,-0.664407,-0.645555,-0.64475,-0.649583,-0.663762,-0.624448,-0.659895,-0.668274,-0.615264,-0.667951,-0.635888,-0.660056,-0.666985,-0.645394,-0.64475,-0.679875,-0.632504,-0.650872,-0.667629,-0.627831,-0.650872,-0.655061,-0.651517,-0.64056,-0.676974,-0.642816,-0.670852,-0.662312,-0.633149,-0.687931,-0.638949,-0.643138,-0.667468,-0.657639,-0.66199,-0.630732,-0.651356,-0.650872,-0.636049,-0.670046,-0.651356,-0.636049,-0.636693,-0.650228,-0.614297,-0.650872,-0.655545,-0.628637,-0.640238,-0.655545,-0.647972,-0.667468,-0.660862,-0.628959,-0.66344,-0.657639,-0.667146,-0.673913,-0.649261,-0.651517,-0.677135,-0.643138,-0.665696,-0.660862,-0.619936,-0.661023,-0.641527,-0.647005,-0.649905,-0.649261,-0.632343,-0.666824,-0.657478,-0.634115,-0.657156,-0.640399,-0.650872,-0.635565,-0.651033,-0.643299,-0.637177,-0.646683,-0.629443,-0.64201,-0.642494,-0.653611,-0.644588,-0.649261,-0.650067,-0.635404,-0.649422,-0.631376,-0.652806,-0.641366,-0.646683,-0.641205,-0.638949,-0.670368,-0.648616,-0.643944,-0.646361,-0.639594,-0.630409,-0.646361,-0.628154,-0.6549,-0.636049,-0.619775,-0.667951,-0.632182,-0.619775,-0.629443,-0.622837,-0.635565,-0.642816,-0.623481,-0.641044,-0.616714,-0.626381,-0.663601,-0.627509,-0.622031,-0.612041,-0.629282,-0.606241,-0.617036,-0.61188,-0.634438,-0.599635,-0.60608,-0.661829,-0.595123,-0.644911,-0.614297,-0.605919,-0.621387,-0.617681,-0.590773,-0.639432,-0.617036,-0.59899,-0.632665,-0.576272,-0.605113,-0.622837,-0.589645,-0.610591,-0.614136,-0.605919,-0.601085,-0.599151,-0.601568,-0.613814,-0.588678,-0.60608,-0.59174,-0.592868,-0.595123,-0.587067,-0.591095,-0.582556,-0.566443,-0.576594,-0.595284,-0.589001,-0.5803,-0.566121,-0.567893,-0.584328,-0.554359,-0.568699,-0.569988,-0.558548,-0.563221,-0.577561,-0.562254,-0.562254,-0.569988,-0.549847,-0.589001,-0.564026,-0.580139,-0.579655,-0.551136,-0.580944,-0.562415,-0.565477,-0.543886,-0.588678,-0.590128,-0.569666,-0.573694,-0.586906,-0.55307,-0.584489,-0.585295,-0.568699,-0.628637,-0.572566,-0.616553,-0.640238,-0.618647,-0.627026,-0.651839,-0.645394,-0.659895,-0.668274,-0.688092,-0.686158,-0.669079,-0.704688,-0.680358,-0.678586,-0.675202,-0.663118,-0.654417,-0.664084,-0.612202,-0.622837,-0.618486,-0.572727,-0.55307,-0.577883,-0.510855,-0.52294,-0.494743,-0.461068,-0.417565,-0.430455,-0.370516,-0.355048,-0.341836,-0.262724,-0.291243,-0.204397,-0.178295,-0.166855,-0.118679,-0.059063,-0.038762,0.044701,0.099322,0.108184,0.216459,0.229511,0.292027,0.390474,0.43285,0.492949,0.543865,0.578668,0.614276,0.652624,0.690005,0.732542,0.771857,0.806015,0.842591,0.87111,0.900596,0.928954,0.955378,0.97423,1.002749,1.023696,1.042547,1.059466,1.070905,1.096524,1.105709,1.119888,1.136806,1.142767,1.156624,1.169998,1.175798,1.182888,1.197228,1.199323,1.214952,1.217691,1.225586,1.232353,1.233642,1.223653,1.212374,1.193361,1.158719,1.120049,1.053665,1.029174,0.96134,0.868532,0.808432,0.733348,0.632967,0.545798,0.472648,0.32973,0.294283,0.186813,0.068225,0.002325,-0.099344,-0.20472,-0.268041,-0.362944,-0.444956,-0.491037,-0.602535,-0.659412,-0.691959,-0.748352,-0.777355,-0.817958,-0.830525,-0.847927,-0.87564,-0.875479,-0.892719,-0.893686,-0.892236,-0.887402,-0.884824,-0.879829,-0.878379,-0.870968,-0.882085,-0.896264,-0.89288,-0.896264,-0.924461,-0.909637,-0.923172,-0.95153,-0.923655,-0.939445,-0.954913,-0.948146,-0.960069,-0.958136,-0.965386,-0.954269,-0.980693,-0.970542,-0.986655,-0.972798,-0.993905,-0.980049,-0.98456,-1.002928,-1.00035,-1.005828,-1.004217,-1.012434,-1.003412,-1.012918,-1.008245,-1.01034,-1.019846,-1.016301,-1.015496,-1.020813,-1.02323,-1.016624,-1.023874,-1.019846,-1.018879,-1.019846,-1.022908,-1.022908,-1.014529,-1.015979,-1.018557,-1.022102,-1.015174,-1.011145,-1.001317,-0.978115,-0.985366,-0.971187,-0.958458,-0.951691,-0.939929,-0.920594,-0.899003,-0.857272,-0.847121,-0.84551,-0.812157,-0.804907,-0.764142,-0.752541,-0.719672,-0.714838,-0.686964,-0.688575,-0.669885,-0.673268,-0.645394,-0.60898,-0.633632,-0.586262,-0.60463,-0.601891,-0.584489,-0.582717,-0.614136,-0.571921,-0.580622,-0.617842,-0.566927,-0.600924,-0.588678,-0.593834,-0.583039,-0.590128,-0.598668,-0.597701,-0.605758,-0.587228,-0.593512,-0.595284,-0.584167,-0.605758,-0.601568,-0.592706,-0.597379,-0.608174,-0.59899,-0.595446,-0.58755,-0.611397,-0.591095,-0.584167,-0.606724,-0.597057,-0.594801,-0.598507,-0.585778,-0.595929,-0.619614,-0.594479,-0.593834,-0.609947,-0.570149,-0.61333,-0.594479,-0.589806,-0.61897,-0.597218,-0.573049,-0.605113,-0.571277,-0.576111,-0.615264,-0.575466,-0.630732,-0.591901,-0.609624,-0.603985,-0.589645,-0.589967,-0.610752,-0.588517,-0.62767,-0.59899,-0.585134,-0.586584,-0.585617,-0.562576,-0.603985,-0.585617,-0.574016,-0.57176,-0.577077,-0.565315,-0.599957,-0.583684,-0.585134,-0.593673,-0.583522,-0.589645,-0.577239,-0.582556,-0.574661,-0.585939,-0.594801,-0.582233,-0.591579,-0.587389,-0.576433,-0.572405,-0.600279,-0.562415,-0.593673,-0.572405,-0.572244,-0.574822,-0.548881,-0.599957,-0.552264,-0.578689,-0.565638,-0.582878,-0.587228,-0.579655,-0.555487,-0.585456,-0.584167,-0.544691,-0.59609,-0.579011,-0.555648,-0.595284,-0.556776,-0.577077,-0.574177,-0.578044,-0.577077,-0.603341,-0.557259,-0.564832,-0.611236,-0.560804,-0.575627,-0.587712,-0.567732,-0.554359,-0.569021,-0.568699,-0.548397,-0.551298,-0.552103,-0.596573,-0.543241,-0.572888,-0.561932,-0.554681,-0.581911,-0.549042,-0.541469,-0.567088,-0.555809,-0.56161,-0.571116,-0.532285,-0.564349,-0.56161,-0.525195,-0.539697,-0.535991,-0.535507,-0.538569,-0.548075,-0.51585,-0.546947,-0.545497,-0.519717,-0.564832,-0.525518,-0.511017,-0.540986,-0.537119,-0.547914,-0.547431,-0.501188,-0.532124,-0.545658,-0.491521,-0.529546,-0.524873,-0.520523,-0.516817,-0.525357,-0.492326,-0.531157,-0.503766,-0.485881,-0.565799,-0.473958,-0.528257,-0.511017,-0.503766,-0.48137,-0.503605,-0.488298,-0.499899,-0.49426,-0.473152,-0.502799,-0.468963,-0.509889,-0.467996,-0.469447,-0.485398,-0.477825,-0.472669,-0.483464,-0.455107,-0.442539,-0.485237,-0.437544,-0.453334,-0.45704,-0.441894,-0.469447,-0.453495,-0.44415,-0.461713,-0.470252,-0.431744,-0.462679,-0.476214,-0.441572,-0.472347,-0.437061,-0.424654,-0.442055,-0.449306,-0.430293,-0.454784,-0.434483,-0.44415,-0.448984,-0.421432,-0.448339,-0.429004,-0.442378,-0.420787,-0.424493,-0.419337,-0.437544,-0.414826,-0.424976,-0.4369,-0.399519,-0.409992,-0.403708,-0.423365,-0.405319,-0.382923,-0.388562,-0.424171,-0.380506,-0.429971,-0.406608,-0.340547,-0.397263,-0.398874,-0.374867,-0.387757,-0.387434,-0.36391,-0.375189,-0.35811,-0.36955,-0.366327,-0.341031,-0.356176,-0.361816,-0.338453,-0.324274,-0.334908,-0.335875,-0.328624,-0.353437,-0.335875,-0.351665,-0.327818,-0.349087,-0.33523,-0.32524,-0.343931,-0.324757,-0.34522,-0.329752,-0.325885,-0.311384,-0.351504,-0.340064,-0.325563,-0.334425,-0.291727,-0.330074,-0.323307,-0.315734,-0.330719,-0.328141,-0.307356,-0.28786,-0.332652,-0.270781,-0.31509,-0.324113,-0.29221,-0.301555,-0.309611,-0.262885,-0.328463,-0.308806,-0.272714,-0.314606,-0.264658,-0.302683,-0.301233,-0.274809,-0.287054,-0.295755,-0.272714,-0.291888,-0.287215,-0.271747,-0.314929,-0.272714,-0.298655,-0.275131,-0.275453,-0.307517,-0.28222,-0.261758,-0.300427,-0.263691,-0.30075,-0.304617,-0.258213,-0.293982,-0.289632,-0.292693,-0.279965,-0.276742,-0.276581,-0.263691,-0.274003,-0.259018,-0.272231,-0.275453,-0.25644,-0.27497,-0.259341,-0.283348,-0.278353,-0.278353,-0.268686,-0.265947,-0.269169,-0.261919,-0.279642,-0.278514,-0.259341,-0.257729,-0.274003,-0.261758,-0.295271,-0.261274,-0.263691,-0.279481,-0.267075,-0.288182,-0.270297,-0.277548,-0.250479,-0.252412,-0.275614,-0.261758,-0.250318,-0.260146,-0.258213,-0.270136,-0.290115,-0.241295,-0.263047,-0.278998,-0.254024,-0.271586,-0.278676,-0.262402,-0.307195,-0.292693,-0.264819,-0.3022,-0.274325,-0.286893,-0.292532,-0.290599,-0.292049,-0.301394,-0.30365,-0.315573,-0.306228,-0.329107,-0.327174,-0.34957,-0.339097,-0.329913,-0.338453,-0.354887,-0.344092,-0.37245,-0.349892,-0.372128,-0.369227,-0.358271,-0.38389,-0.363266,-0.419015,-0.371,-0.397263,-0.413375,-0.40548,-0.405964,-0.434805,-0.438672,-0.394363,-0.442539,-0.428038,-0.466385,-0.444311,-0.464452,-0.476536,-0.483464,-0.486365,-0.526001,-0.490715,-0.517139,-0.536313,-0.517945,-0.551298,-0.538085,-0.539536,-0.592062,-0.583684,-0.549203,-0.580783,-0.583039,-0.588195,-0.588034,-0.602213,-0.603502,-0.632182,-0.627348,-0.652,-0.647166,-0.647166,-0.637016,-0.668757,-0.65635,-0.657801,-0.702271,-0.656834,-0.692281,-0.685031,-0.688897,-0.702271,-0.717416,-0.713549,-0.726923,-0.7237,-0.708877,-0.748997,-0.719028,-0.728695,-0.744969,-0.734496,-0.755281,-0.751897,-0.750769,-0.760275,-0.77526,-0.743519,-0.785411,-0.790728,-0.765915,-0.797817,-0.791856,-0.800234,-0.808935,-0.819247,-0.81683,-0.843738,-0.836648,-0.840354,-0.867101,-0.857917,-0.888369,-0.894975,-0.908832,-0.913504,-0.922527,-0.950563,-0.945246,-0.955558,-0.962647,-0.965708,-0.973604,-0.982465,-0.968125,-1.000028,-0.987782,-0.999706,-1.010018,-1.011468,-1.01759,-1.038375,-1.033058,-1.031286,-1.041276,-1.053843,-1.050137,-1.049171,-1.05916,-1.059805,-1.069311,-1.084135,-1.086713,-1.083168,-1.072695,-1.072373,-1.091869,-1.080429,-1.096058,-1.085101,-1.090096,-1.084296,-1.097669,-1.100086,-1.096219,-1.105886,-1.093319,-1.116359,-1.115393,-1.110076,-1.12506,-1.115393,-1.102664,-1.117648,-1.112331,-1.108948,-1.112976,-1.10637,-1.093158,-1.109914,-1.092835,-1.098797,-1.104436,-1.094769,-1.081557,-1.083329,-1.068989,-1.07624,-1.061577,-1.053521,-1.043854,-1.02613,-1.041276,-1.002445,-1.009373,-0.985849,-0.986171,-0.968125,-0.945407,-0.955558,-0.932195,-0.92575,-0.920272,-0.918499,-0.890625,-0.896103,-0.881602,-0.863395,-0.876768,-0.870645,-0.863234,-0.854694,-0.852277,-0.850344,-0.857917,-0.838098,-0.846799,-0.829559,-0.834876,-0.835198,-0.822469,-0.851633,-0.811352,-0.817474,-0.843738,-0.797978,-0.838743,-0.833426,-0.796206,-0.826336,-0.830364,-0.787989,-0.816991,-0.819569,-0.785089,-0.837132,-0.79814,-0.797817,-0.814735,-0.799267,-0.771715,-0.812963,-0.801684,-0.782672,-0.820536,-0.766398,-0.787989,-0.778966,-0.812802,-0.79959,-0.81973,-0.778966,-0.782188,-0.808613,-0.785894,-0.791695,-0.752058,-0.785411,-0.769137,-0.790406,-0.779127,-0.787505,-0.768976,-0.778644,-0.790728,-0.76237,-0.774293
 18:12:19.76504,-0.755925,-0.762692,-0.765593,-0.756892,-0.775099,-0.769298,-0.75383,-0.76237,-0.763015,-0.756408,-0.747386,-0.77236,-0.73659,-0.768009,-0.741907,-0.771715,-0.776388,-0.745291,-0.740941,-0.766398,-0.746097,-0.756247,-0.798784,-0.742713,-0.773165,-0.742552,-0.741102,-0.759309,-0.768493,-0.741263,-0.755281,-0.735946,-0.750447,-0.768009,-0.71935,-0.724023,-0.738685,-0.729823,-0.734334,-0.732401,-0.70646,-0.731918,-0.738685,-0.702432,-0.743841,-0.717416,-0.701143,-0.741907,-0.699854,-0.73079,-0.734979,-0.721606,-0.713711,-0.741424,-0.72515,-0.706138,-0.752219,-0.710005,-0.740457,-0.717578,-0.733045,-0.725795,-0.732562,-0.715322,-0.736268,-0.726439,-0.719672,-0.754958,-0.715483,-0.740618,-0.718705,-0.74803,-0.728534,-0.738363,-0.72789,-0.728373,-0.737396,-0.73079,-0.743196,-0.711777,-0.720156,-0.745452,-0.703399,-0.715322,-0.735462,-0.70936,-0.715644,-0.729823,-0.722089,-0.750125,-0.740941,-0.730629,-0.717416,-0.722734,-0.744969,-0.726601,-0.710649,-0.713711,-0.742068,-0.693731,-0.711133,-0.710649,-0.691153,-0.726762,-0.721767,-0.71226,-0.715644,-0.71935,-0.713227,-0.73079,-0.71935,-0.698565,-0.725473,-0.703238,-0.730145,-0.723861,-0.713872,-0.723217,-0.734012,-0.73659,-0.723861,-0.724345,-0.696631,-0.726117,-0.710327,-0.697759,-0.723378,-0.69502,-0.704688,-0.727245,-0.707105,-0.718061,-0.692764,-0.709844,-0.73659,-0.685836,-0.719994,-0.699048,-0.696309,-0.696309,-0.687609,-0.684869,-0.731434,-0.689542,-0.69502,-0.736751,-0.698404,-0.691637,-0.702915,-0.670852,-0.729501,-0.723861,-0.701465,-0.71081,-0.694376,-0.696631,-0.747547,-0.724828,-0.691475,-0.723539,-0.708071,-0.704688,-0.693731,-0.709038,-0.717255,-0.695504,-0.710649,-0.717416,-0.728856,-0.695342,-0.698887,-0.705977,-0.67923,-0.681647,-0.695826,-0.682291,-0.72789,-0.69792,-0.680036,-0.70501,-0.681647,-0.687931,-0.707427,-0.708716,-0.695504,-0.716772,-0.688575,-0.695665,-0.701465,-0.691637,-0.70356,-0.700176,-0.698404,-0.701787,-0.677297,-0.691798,-0.69067,-0.685514,-0.688414,-0.685836,-0.673268,-0.688253,-0.67343,-0.671496,-0.70066,-0.6549,-0.683097,-0.686803,-0.670046,-0.676008,-0.695504,-0.660701,-0.687125,-0.700982,-0.659895,-0.698565,-0.689059,-0.693248,-0.68068,-0.681969,-0.698565,-0.685836,-0.669079,-0.681164,-0.699693,-0.665212,-0.69212,-0.66054,-0.689059,-0.697598,-0.67778,-0.663762,-0.697598,-0.66924,-0.664407,-0.690025,-0.653611,-0.684547,-0.672785,-0.646361,-0.67069,-0.657639,-0.65055,-0.656512,-0.668596,-0.654256,-0.676813,-0.676652,-0.641044,-0.694537,-0.656834,-0.654417,-0.672624,-0.661829,-0.660217,-0.67343,-0.650228,-0.659573,-0.666018,-0.623803,-0.666662,-0.650872,-0.639755,-0.641849,-0.662634,-0.628154,-0.672141,-0.63186,-0.615264,-0.685192,-0.606563,-0.644105,-0.647972,-0.650711,-0.662795,-0.658445,-0.63476,-0.652483,-0.640883,-0.642816,-0.672785,-0.626381,-0.661023,-0.661829,-0.634438,-0.67923,-0.664729,-0.625415,-0.647328,-0.662312,-0.640238,-0.67343,-0.648294,-0.663601,-0.674074,-0.645394,-0.66634,-0.664084,-0.654417,-0.663279,-0.655384,-0.64475,-0.630893,-0.682775,-0.647328,-0.645233,-0.643138,-0.649422,-0.627187,-0.6491,-0.624126,-0.62767,-0.636854,-0.625092,-0.630248,-0.624609,-0.619292,-0.609141,-0.617681,-0.618003,-0.610752,-0.609302,-0.613008,-0.600763,-0.582556,-0.618486,-0.609624,-0.583845,-0.605758,-0.558065,-0.605919,-0.59174,-0.580139,-0.62042,-0.585617,-0.592706,-0.601729,-0.60318,-0.57321,-0.610269,-0.583039,-0.570471,-0.596412,-0.600602,-0.5832,-0.595284,-0.585778,-0.615908,-0.611236,-0.620098,-0.574016,-0.588839,-0.585617,-0.604307,-0.592545,-0.587712,-0.597379,-0.584006,-0.567249,-0.603985,-0.588678,-0.581911,-0.598829,-0.580461,-0.574338,-0.601246,-0.565315,-0.569666,-0.593995,-0.562737,-0.586262,-0.609947,-0.555326,-0.579011,-0.567732,-0.577883,-0.586262,-0.582072,-0.576272,-0.560321,-0.556131,-0.592706,-0.585134,-0.550814,-0.589645,-0.577561,-0.543403,-0.56451,-0.549686,-0.540502,-0.562254,-0.569505,-0.562576,-0.575144,-0.563543,-0.553714,-0.590773,-0.553231,-0.566765,-0.558548,-0.56451,-0.564993,-0.580139,-0.545175,-0.572888,-0.582072,-0.547914,-0.563382,-0.567571,-0.565154,-0.57321,-0.58465,-0.566282,-0.574983,-0.573533,-0.555326,-0.593029,-0.553876,-0.568538,-0.577077,-0.571438,-0.559837,-0.571116,-0.531963,-0.561448,-0.591256,-0.541791,-0.584167,-0.55597,-0.562737,-0.587873,-0.542275,-0.571438,-0.552264,-0.554198,-0.546142,-0.561126,-0.577722,-0.556131,-0.541791,-0.562093,-0.571438,-0.541147,-0.568538,-0.540825,-0.559676,-0.554681,-0.549847,-0.55452,-0.573049,-0.549042,-0.551298,-0.566927,-0.558387,-0.557581,-0.577239,-0.56161,-0.571921,-0.586906,-0.566765,-0.584167,-0.5861,-0.545819,-0.574016,-0.579494,-0.5832,-0.549042,-0.600279,-0.573049,-0.572888,-0.593834,-0.579333,-0.60044,-0.589001,-0.604469,-0.579172,-0.594962,-0.595284,-0.590451,-0.589162,-0.603341,-0.582556,-0.580622,-0.626543,-0.574983,-0.614297,-0.604952,-0.586906,-0.601568,-0.605435,-0.595446,-0.59464,-0.604146,-0.591579,-0.630409,-0.607046,-0.600924,-0.614942,-0.576916,-0.582072,-0.602696,-0.611558,-0.578044,-0.572888,-0.582072,-0.580461,-0.573855,-0.560804,-0.608174,-0.55887,-0.597218,-0.571277,-0.567732,-0.586906,-0.547431,-0.550653,-0.568377,-0.569988,-0.54308,-0.565799,-0.554198,-0.566443,-0.563221,-0.570149,-0.534541,-0.569666,-0.558387,-0.536313,-0.5803,-0.542275,-0.557581,-0.540663,-0.564188,-0.563865,-0.566765,-0.551942,-0.561287,-0.555326,-0.564349,-0.581911,-0.566282,-0.515206,-0.582072,-0.533252,-0.568699,-0.573049,-0.55742,-0.540019,-0.569827,-0.533091,-0.553231,-0.55307,-0.55887,-0.565799,-0.533413,-0.573049,-0.551459,-0.561287,-0.544047,-0.552264,-0.539374,-0.547592,-0.544369,-0.524068,-0.545014,-0.5144,-0.554681,-0.550009,-0.549203,-0.530674,-0.522295,-0.540663,-0.533735,-0.537602,-0.518428,-0.526323,-0.5086,-0.554037,-0.529224,-0.524068,-0.525679,-0.510211,-0.514722,-0.519073,-0.545014,-0.490393,-0.521812,-0.498932,-0.517139,-0.505699,-0.515045,-0.52294,-0.529868,-0.528901,-0.534541,-0.551136,-0.526001,-0.56161,-0.550814,-0.519234,-0.555165,-0.56741,-0.548075,-0.577883,-0.607046,-0.584006,-0.59899,-0.617842,-0.599635,-0.639432,-0.626543,-0.623965,-0.651194,-0.66344,-0.652161,-0.663279,-0.655061,-0.646361,-0.653128,-0.612041,-0.647489,-0.589484,-0.60318,-0.589323,-0.552425,-0.532124,-0.533091,-0.49007,-0.495388,-0.481047,-0.418692,-0.436255,-0.373094,-0.368744,-0.346509,-0.308967,-0.272553,-0.272714,-0.224055,-0.194891,-0.163472,-0.097572,-0.052941,0.003775,0.045023,0.085304,0.153138,0.200508,0.267053,0.312812,0.408681,0.456535,0.513251,0.567389,0.610409,0.651819,0.691455,0.728675,0.77524,0.811332,0.841946,0.877233,0.906074,0.930082,0.959245,0.98132,1.007583,1.027079,1.045931,1.063816,1.084279,1.095719,1.116021,1.126333,1.133744,1.154369,1.155013,1.172898,1.189333,1.190461,1.198517,1.212213,1.216724,1.223975,1.23187,1.234609,1.248466,1.248144,1.2533,1.264901,1.26055,1.262967,1.254105,1.24186,1.200289,1.172898,1.120854,1.027885,0.978581,0.895279,0.809399,0.712724,0.594458,0.53033,0.41142,0.298794,0.220326,0.115596,-0.028772,-0.055035,-0.209876,-0.293177,-0.368422,-0.454462,-0.516495,-0.585939,-0.673752,-0.703399,-0.757375,-0.794111,-0.793306,-0.827947,-0.833265,-0.857111,-0.860333,-0.869034,-0.863878,-0.865489,-0.863878,-0.844866,-0.853727,-0.837293,-0.853888,-0.857594,-0.856144,-0.861945,-0.868551,-0.878702,-0.894008,-0.900776,-0.912054,-0.913343,-0.912054,-0.916082,-0.932034,-0.926555,-0.938317,-0.9243,-0.943312,-0.940895,-0.942346,-0.942023,-0.952496,-0.953624,-0.951046,-0.970703,-0.959102,-0.967159,-0.961358,-0.973926,-0.97022,-0.977954,-0.96732,-0.962003,-0.996,-0.974731,-0.97167,-0.984399,-0.971187,-0.982949,-0.997128,-0.99036,-0.984399,-0.988427,-0.975054,-0.979726,-0.983593,-0.967159,-0.97457,-0.967642,-0.961036,-0.96023,-0.95733,-0.93864,-0.9272,-0.912538,-0.914954,-0.907059,-0.862911,-0.877413,-0.82118,-0.828592,-0.79959,-0.765915,-0.75947,-0.745774,-0.700982,-0.714033,-0.698887,-0.671174,-0.694537,-0.664407,-0.67069,-0.650872,-0.640399,-0.626059,-0.646683,-0.637177,-0.595123,-0.646683,-0.579978,-0.632343,-0.637177,-0.606563,-0.604791,-0.634115,-0.611397,-0.604469,-0.606402,-0.638788,-0.61752,-0.610913,-0.608174,-0.594801,-0.616875,-0.62912,-0.607369,-0.636049,-0.614297,-0.627187,-0.619775,-0.634599,-0.63186,-0.601891,-0.629765,-0.643944,-0.60044,-0.616069,-0.614619,-0.603341,-0.619453,-0.615747,-0.623642,-0.632826,-0.587389,-0.628959,-0.599474,-0.620098,-0.628959,-0.618325,-0.619775,-0.632504,-0.602052,-0.62622,-0.626543,-0.589806,-0.62912,-0.612364,-0.612847,-0.621064,-0.627187,-0.613814,-0.637499,-0.625415,-0.582233,-0.66489,-0.594962,-0.627348,-0.620581,-0.603985,-0.628637,-0.631376,-0.635888,-0.632504,-0.634276,-0.624126,-0.647005,-0.590773,-0.622514,-0.611719,-0.621387,-0.618003,-0.642655,-0.609141,-0.606402,-0.629604,-0.60898,-0.634599,-0.610752,-0.60318,-0.62622,-0.613169,-0.609624,-0.631376,-0.61752,-0.59319,-0.618164,-0.625415,-0.592223,-0.639271,-0.600279,-0.626059,-0.602052,-0.596573,-0.595768,-0.611719,-0.603018,-0.60608,-0.595446,-0.590612,-0.609302,-0.56596,-0.589001,-0.60044,-0.610108,-0.598024,-0.579333,-0.600118,-0.619131,-0.585617,-0.568054,-0.625898,-0.559515,-0.593995,-0.59899,-0.571116,-0.593834,-0.608819,-0.581106,-0.598507,-0.588839,-0.599151,-0.606241,-0.59464,-0.595768,-0.596896,-0.588356,-0.58465,-0.605435,-0.605113,-0.592868,-0.604469,-0.59754,-0.586584,-0.604307,-0.608013,-0.595446,-0.585778,-0.608335,-0.596251,-0.583039,-0.591901,-0.607046,-0.580139,-0.583361,-0.593834,-0.558548,-0.608013,-0.580622,-0.574822,-0.568054,-0.603018,-0.56741,-0.575305,-0.564993,-0.54163,-0.608658,-0.574661,-0.588195,-0.549686,-0.562737,-0.565638,-0.56741,-0.553714,-0.556292,-0.576433,-0.530674,-0.58175,-0.528418,-0.578366,-0.530029,-0.562899,-0.552103,-0.538569,-0.532285,-0.548075,-0.537441,-0.542114,-0.582233,-0.527773,-0.550653,-0.539536,-0.522779,-0.537441,-0.535991,-0.516334,-0.532607,-0.527935,-0.531157,-0.553876,-0.526484,-0.531318,-0.533735,-0.510211,-0.523745,-0.528257,-0.525679,-0.529546,-0.499738,-0.51585,-0.522618,-0.496838,-0.510855,-0.509083,-0.510855,-0.525034,-0.49571,-0.494582,-0.506666,-0.514884,-0.516334,-0.530835,-0.519395,-0.504249,-0.512628,-0.502316,-0.499416,-0.510533,-0.503766,-0.485237,-0.515689,-0.49007,-0.46703,-0.520845,-0.483948,-0.483787,-0.468319,-0.476375,-0.47428,-0.471863,-0.464291,-0.472508,-0.46558,-0.448178,-0.49007,-0.453656,-0.467835,-0.45704,-0.455268,-0.465902,-0.440766,-0.430455,-0.461229,-0.447695,-0.410314,-0.467835,-0.407575,-0.43271,-0.450595,-0.399841,-0.419015,-0.435449,-0.41112,-0.414181,-0.423687,-0.384212,-0.440928,-0.42691,-0.39114,-0.417726,-0.39404,-0.404352,-0.400969,-0.38824,-0.392752,-0.393879,-0.379056,-0.369066,-0.388562,-0.369389,-0.390657,-0.36246,-0.38969,-0.368744,-0.384534,-0.351826,-0.337969,-0.350054,-0.353759,-0.36101,-0.346348,-0.343125,-0.326207,-0.34232,-0.348442,-0.325563,-0.321857,-0.346187,-0.344092,-0.322179,-0.354243,-0.318634,-0.307195,-0.327496,-0.338453,-0.306872,-0.311223,-0.318796,-0.321212,-0.327013,-0.318151,-0.318312,-0.309611,-0.318312,-0.328946,-0.283993,-0.330558,-0.323468,-0.304455,-0.312995,-0.317668,-0.268847,-0.31944,-0.334908,-0.29511,-0.33813,-0.309128,-0.295755,-0.312673,-0.320407,-0.301072,-0.299944,-0.317668,-0.291727,-0.332169,-0.301555,-0.302039,-0.316056,-0.308967,-0.288665,-0.303972,-0.323146,-0.285443,-0.314606,-0.306872,-0.308645,-0.301877,-0.324113,-0.30365,-0.306067,-0.305906,-0.298655,-0.305261,-0.314606,-0.313156,-0.29221,-0.324918,-0.327818,-0.284476,-0.320085,-0.297849,-0.29221,-0.304939,-0.307033,-0.305583,-0.30655,-0.30655,-0.322018,-0.292693,-0.308806,-0.333297,-0.295433,-0.328141,-0.339742,-0.304778,-0.316056,-0.331202,-0.31944,-0.34957,-0.353276,-0.307195,-0.376478,-0.347315,-0.335391,-0.358271,-0.352632,-0.35811,-0.371,-0.354726,-0.372933,-0.398069,-0.373094,-0.417081,-0.387596,-0.404997,-0.388723,-0.39968,-0.412731,-0.406447,-0.412248,-0.431582,-0.437544,-0.414987,-0.441411,-0.438188,-0.426104,-0.45124,-0.462518,-0.454462,-0.463485,-0.467835,-0.46703,-0.496999,-0.484914,-0.483303,-0.501349,-0.50715,-0.509083,-0.512144,-0.536635,-0.525679,-0.556131,-0.538247,-0.559354,-0.579655,-0.550653,-0.593029,-0.5832,-0.584167,-0.594318,-0.635565,-0.582072,-0.629282,-0.636049,-0.626381,-0.650711,-0.626381,-0.656512,-0.641205,-0.661023,-0.679069,-0.679875,-0.665535,-0.694698,-0.67069,-0.689864,-0.718705,-0.667468,-0.72515,-0.729017,-0.722089,-0.750125,-0.744163,-0.73514,-0.756892,-0.76237,-0.770265,-0.792661,-0.775904,-0.802812,-0.807001,-0.817474,-0.840837,-0.848732,-0.861784,-0.882085,-0.885952,-0.905126,-0.926555,-0.926716,-0.92575,-0.935739,-0.938962,-0.952013,-0.964258,-0.954913,-0.97457,-0.97457,-0.980693,-0.988105,-1.000511,-0.990844,-1.008729,-1.021457,-1.018557,-1.028869,-1.034508,-1.034831,-1.04901,-1.062866,-1.041598,-1.069633,-1.055616,-1.07914,-1.084457,-1.09348,-1.085907,-1.087357,-1.084618,-1.092352,-1.083973,-1.091063,-1.097669,-1.077367,-1.099119,-1.099925,-1.09348,-1.112492,-1.12071,-1.116682,-1.129733,-1.131505,-1.122643,-1.132794,-1.130538,-1.119421,-1.125866,-1.107175,-1.122804,-1.12796,-1.123771,-1.130377,-1.140045,-1.133277,-1.1336,-1.140045,-1.124577,-1.129894,-1.115876,-1.126349,-1.123932,-1.121999,-1.122804,-1.12796,-1.123449,-1.110881,-1.123127,-1.117487,-1.121193,-1.103469,-1.113781,-1.113298,-1.109109,-1.102342,-1.103147,-1.105242,-1.076562,-1.097508,-1.086713,-1.074628,-1.070761,-1.064961,-1.059322,-1.047559,-1.040148,-1.053843,-1.038214,-1.006473,-1.04482,-0.989394,-0.996967,-0.984399,-0.971992,-0.992133,-0.989877,-0.962486,-0.960714,-0.965708,-0.935095,-0.971348,-0.926716,-0.919305,-0.933484,-0.915438,-0.92011,-0.940251,-0.917049,-0.909154,-0.929456,-0.896103,-0.907865,-0.946051,-0.897875,-0.905126,-0.888047,-0.917532,-0.899809,-0.90142,-0.903998,-0.90432,-0.89562,-0.896264,-0.908832,-0.882407,-0.913343,-0.899809,-0.900937,-0.892719,-0.901581,-0.868551,-0.88708,-0.894492,-0.858883,-0.913182,-0.878863,-0.878218,-0.892719,-0.884502,-0.860817,-0.888208,-0.862267,-0.862267,-0.872579,-0.855983,-0.892075,-0.878379,-0.839387,-0.855983,-0.843254,-0.875801,-0.859044,-0.854372,-0.865328,-0.851955,-0.83552,-0.880313,-0.848571,-0.859689,-0.865167,-0.843254,-0.850183,-0.867101,-0.814896,-0.84116,-0.831009,-0.803296,-0.857111,-0.80829,-0.80684,-0.83971,-0.810385,-0.849216,-0.829881,-0.82682,-0.830203,-0.847282,-0.835681,-0.825692,-0.847443,-0.825853,-0.849699,-0.810546,-0.848571,-0.838743,-0.830364,-0.842932,-0.834392,-0.815702,-0.832942,-0.840676,-0.824886,-0.861945,-0.827625,-0.819891,-0.830687,-0.823114,-0.813124,-0.833587,-0.822792,-0.807485,-0.841482,-0.838098,-0.827464,-0.84696,-0.824081,-0.815702,-0.812318,-0.825208,-0.819247,-0.81683,-0.81538,-0.832137,-0.82682,-0.829398,-0.82682,-0.833587,-0.797334,-0.830364,-0.829236,-0.825208,-0.819891,-0.802168,-0.845188,-0.82263,-0.802329,-0.821341,-0.823919,-0.816669,-0.833265,-0.812802,-0.797495,-0.838098,-0.80249,-0.797817,-0.828914,-0.785894,-0.80104,-0.801201,-0.830687,-0.790083,-0.796689,-0.784605,-0.80684,-0.784444,-0.786378,-0.836648,-0.769782,-0.801845,-0.811352,-0.791856,-0.799106,-0.782188,-0.779449,-0.804907,-0.796528,-0.763015,-0.805874,-0.786539,-0.801845,-0.7838,-0.775582,-0.783477,-0.79814,-0.770426,-0.795562,-0.784122,-0.783477,-0.795723,-0.784283,-0.762692,-0.778321,-0.770104,-0.773326,-0.780899,-0.773004,-0.772199,-0.774454,-0.755925,-0.767687,-0.781705,-0.77236,-0.777677,-0.755764,-0.763337,-0.754314,-0.775904,-0.762531,-0.76527,-0.75093,-0.766076,-0.784122,-0.754797,-0.772521,-0.756086,-0.761726,-0.778321,-0.76527,-0.761564,-0.774777,-0.755442,-0.738524,-0.793145,-0.734173,-0.767365,-0.764304,-0.754475,-0.759792,-0.764626,-0.766076,-0.772521,-0.74368,-0.756086,-0.791372,-0.732079,-0.771876,-0.770426,-0.751252,-0.767365,-0.768815,-0.756408,-0.76237,-0.751414,-0.762853,-0.781383,-0.751897,-0.759309,-0.768493,-0.765109,-0.764142,-0.746097,-0.761564,-0.775099,-0.756408,-0.739007,-0.773649,-0.765593,-0.753508,-0.767043,-0.764465,-0.756731,-0.76237,-0.765593,-0.757859,-0.773004,-0.764787,-0.755925,-0.775421,-0.730467,-0.778321,-0.756247,-0.781544,-0.769459,-0.769137,-0.756731,-0.779933,-0.747547,-0.774454,-0.792178,-0.728373,-0.785089,-0.766882,-0.766398,-0.747869,-0.76092,-0.745774,-0.771715,-0.741263,-0.749158,-0.756408,-0.726923,-0.746902,-0.751736,-0.733529,-0.749641,-0.727567,-0.739329,-0.756086,-0.733851,-0.734657,-0.758181,-0.708716,-0.727567,-0.748836,-0.714033,-0.735623,-0.72934,-0.724184,-0.734173,-0.717255,-0.725795,-0.714194,-0.724989,-0.726439,-0.742391,-0.710649,-0.731756,-0.716611,-0.730145,-0.730306,-0.742713,-0.717094,-0.721767,-0.739329,-0.703238,-0.73659,-0.721122,-0.721122,-0.723217,-0.726923,-0.7208,-0.739168,-0.723217,-0.72934,-0.757859,-0.723056,-0.712099,-0.734012,-0.730306,-0.727728,-0.745935,-0.703399,-0.714194,-0.748997,-0.710488,-0.715322,-0.71645,-0.728695,-0.718222,-0.724345,-0.715644,-0.710488,-0.715483,-0.715644,-0.714516,-0.71935,-0.720478,-0.729984,-0.688575,-0.730629,-0.697115,-0.718383,-0.722734,-0.688414,-0.704204,-0.72225,-0.67488,-0.715322,-0.716611,-0.675041,-0.716289,-0.698887,-0.695987,-0.707266,-0.707588,-0.695987,-0.703399,-0.713872,-0.692281,-0.708877,-0.694859,-0.69357,-0.685031,-0.694376,-0.682453,-0.689542,-0.675363,-0.684064,-0.694376,-0.701465,-0.721606,-0.694053,-0.684386,-0.689542,-0.688092,-0.681969,-0.676491,-0.690348,-0.694215,-0.685192,-0.706782,-0.694215,-0.714516,-0.68068,-0.671496,-0.711777,-0.708716,-0.706621,-0.703076,-0.675202,-0.698082,-0.686158,-0.675202,-0.694376,-0.698243,-0.682453,-0.690992,-0.677135,-0.688575,-0.675846,-0.669563,-0.68777,-0.682453,-0.684869,-0.713388,-0.641688,-0.67778,-0.654578,-0.681164,-0.716289,-0.686964,-0.661829,-0.714677,-0.668435,-0.664729,-0.689542,-0.645555,-0.685031,-0.690186,-0.68922,-0.682291,-0.672463,-0.667629,-0.692603,-0.662957,-0.683258,-0.681325,-0.655545,-0.681164,-0.655384,-0.646683,-0.672946,-0.647811,-0.654578,-0.65345,-0.648294,-0.653772,-0.66054,-0.638949,-0.658284,-0.638788,-0.620259,-0.642494,-0.641527,-0.616714,-0.636854,-0.647489,-0.606724,-0.608658,-0.645072,-0.61897,-0.610752,-0.627187,-0.622837,-0.610108,-0.600279,-0.595123,-0.59754,-0.579978,-0.590451,-0.589001,-0.560965,-0.592545,-0.570794,-0.581428,-0.609141,-0.564026,-0.567893,-0.569988,-0.573694,-0.595446,-0.588356,-0.591095,-0.601891,-0.563382,-0.594801,-0.592223,-0.562254,-0.574016,-0.590128,-0.569343,-0.596735,-0.591417,-0.588356,-0.579011,-0.608335,-0.573372,-0.589967,-0.584489,-0.585134,-0.582878,-0.614297,-0.569827,-0.585617,-0.605758,-0.596735,-0.59754,-0.584811,-0.594318,-0.587712,-0.603018,-0.591095,-0.609463,-0.596251,-0.57595,-0.597218,-0.584328,-0.585456,-0.578366,-0.584489,-0.578205,-0.599635,-0.584973,-0.583522,-0.591095,-0.582395,-0.590773,-0.559354,-0.587389,-0.579978,-0.603663,-0.603018,-0.579011,-0.58175,-0.607691,-0.568216,-0.550009,-0.622676,-0.559354,-0.588839,-0.614297,-0.603018,-0.594318,-0.588839,-0.581106,-0.605274,-0.580622,-0.594962,-0.61897,-0.579817,-0.586262,-0.614458,-0.580783,-0.597862,-0.593834,-0.586423,-0.622837,-0.599957,-0.602052,-0.643944,-0.593834,-0.595929,-0.624448,-0.606402,-0.592062,-0.605274,-0.612041,-0.591417,-0.61188,-0.594479,-0.584489,-0.615747,-0.584973,-0.607046,-0.584328,-0.593673,-0.578528,-0.613653,-0.604146,-0.571599,-0.583845,-0.586262,-0.604791,-0.585939,-0.602535,-0.599957,-0.603341,-0.589162,-0.592384,-0.586584,-0.59464,-0.565799,-0.578528,-0.605919,-0.547431,-0.587873,-0.593673,-0.578528,-0.582072,-0.600602,-0.580622,-0.588839,-0.596573,-0.567732,-0.620581,-0.581267,-0.586745,-0.613008,-0.606885,-0.577722,-0.596573,-0.595929,-0.594962,-0.603018,-0.599957,-0.633471,-0.596412,-0.594318,-0.618003,-0.598185,-0.612686,-0.599474,-0.609302,-0.609141,-0.608819,-0.593351,-0.631054,-0.62912,-0.605596,-0.652,-0.618486,-0.626865,-0.614297,-0.608819,-0.64056,-0.630409,-0.613975,-0.61043,-0.642816,-0.569988,-0.62477
 18:12:20.76610,-0.613653,-0.605274,-0.641527,-0.646522,-0.604146,-0.602535,-0.63331,-0.617842,-0.623642,-0.625092,-0.602696,-0.627831,-0.62332,-0.607046,-0.615747,-0.626704,-0.614297,-0.615747,-0.621387,-0.610269,-0.615103,-0.610752,-0.614458,-0.601729,-0.620742,-0.615425,-0.626543,-0.615103,-0.623159,-0.619936,-0.619292,-0.628315,-0.602696,-0.635727,-0.600763,-0.611558,-0.604307,-0.589967,-0.604307,-0.615103,-0.599474,-0.587712,-0.634438,-0.577077,-0.599957,-0.60898,-0.60898,-0.601085,-0.594318,-0.613008,-0.602696,-0.587067,-0.599957,-0.599151,-0.60753,-0.599313,-0.592062,-0.570632,-0.605758,-0.593351,-0.589484,-0.589323,-0.603018,-0.579172,-0.592384,-0.589001,-0.560321,-0.584973,-0.578366,-0.581911,-0.578366,-0.585617,-0.574338,-0.598024,-0.562737,-0.580944,-0.603018,-0.534057,-0.59174,-0.575788,-0.559193,-0.594801,-0.596573,-0.563382,-0.596412,-0.563865,-0.538085,-0.593834,-0.541469,-0.578689,-0.591579,-0.573372,-0.578205,-0.588517,-0.570794,-0.584328,-0.59754,-0.576755,-0.629926,-0.605596,-0.615425,-0.631698,-0.608819,-0.612847,-0.63186,-0.638143,-0.656028,-0.662473,-0.655061,-0.685836,-0.679552,-0.697115,-0.712905,-0.680358,-0.723861,-0.714033,-0.710166,-0.708394,-0.705171,-0.681164,-0.705977,-0.68922,-0.666179,-0.674719,-0.637821,-0.62042,-0.615747,-0.619614,-0.566765,-0.547914,-0.523584,-0.482981,-0.495388,-0.456879,-0.418531,-0.397102,-0.379862,-0.31654,-0.323307,-0.267719,-0.233561,-0.194891,-0.15316,-0.098055,-0.034089,-0.013465,0.042928,0.100611,0.176984,0.2366,0.301694,0.360827,0.430916,0.494077,0.557399,0.605576,0.642312,0.679532,0.724325,0.767184,0.802793,0.838079,0.869176,0.896568,0.926376,0.95135,0.976808,1.003555,1.018217,1.043031,1.061882,1.077512,1.095235,1.109253,1.121338,1.139062,1.152757,1.156302,1.178376,1.171448,1.195617,1.202545,1.200289,1.21608,1.228486,1.222686,1.239604,1.24476,1.243793,1.253622,1.248788,1.263451,1.264418,1.255233,1.244921,1.226392,1.175154,1.139545,1.076223,0.982125,0.93121,0.810366,0.73367,0.643601,0.523724,0.409326,0.314584,0.202764,0.099161,0.027944,-0.121902,-0.187157,-0.276259,-0.397907,-0.472025,-0.532285,-0.61897,-0.685353,-0.743035,-0.76527,-0.802329,-0.835843,-0.846799,-0.856628,-0.856144,-0.876929,-0.878702,-0.874996,-0.876929,-0.880313,-0.854372,-0.855822,-0.873384,-0.875801,-0.8642,-0.872418,-0.865812,-0.893847,-0.892719,-0.901903,-0.930745,-0.918821,-0.928005,-0.936867,-0.940734,-0.930745,-0.946051,-0.939768,-0.951207,-0.946051,-0.947663,-0.952496,-0.949274,-0.960875,-0.957008,-0.972637,-0.966836,-0.972637,-0.97457,-0.976987,-0.980693,-0.978921,-0.984399,-0.985527,-0.987621,-0.979243,-0.991811,-0.975376,-1.000672,-0.997772,-0.991166,-0.996161,-0.986977,-0.996161,-0.994066,-0.998739,-1.0047,-1.011307,-0.992616,-0.990844,-0.995033,-0.981176,-0.98456,-0.980693,-0.982949,-0.976665,-0.979565,-0.971831,-0.961358,-0.945568,-0.90996,-0.919305,-0.890302,-0.894653,-0.867584,-0.848894,-0.831976,-0.842126,-0.807324,-0.806518,-0.804262,-0.765754,-0.772843,-0.737557,-0.74658,-0.745774,-0.7179,-0.726117,-0.726923,-0.693248,-0.697598,-0.739652,-0.65909,-0.701143,-0.690025,-0.670368,-0.694859,-0.692926,-0.673752,-0.706943,-0.669563,-0.683258,-0.718383,-0.67633,-0.686158,-0.68632,-0.697598,-0.700337,-0.689059,-0.708071,-0.691475,-0.689542,-0.717255,-0.71081,-0.674719,-0.695826,-0.709682,-0.668596,-0.696631,-0.699693,-0.698887,-0.690348,-0.697276,-0.689059,-0.708071,-0.694859,-0.696793,-0.710488,-0.684869,-0.70791,-0.70646,-0.694537,-0.707266,-0.705332,-0.705493,-0.696148,-0.735301,-0.681325,-0.706621,-0.701949,-0.691959,-0.688414,-0.708232,-0.678586,-0.704365,-0.691798,-0.668596,-0.699854,-0.695665,-0.68922,-0.69502,-0.679391,-0.683258,-0.705171,-0.67343,-0.709521,-0.688253,-0.690186,-0.729017,-0.674074,-0.68922,-0.698887,-0.675041,-0.694698,-0.695342,-0.695181,-0.712422,-0.694859,-0.691637,-0.727245,-0.68213,-0.688736,-0.715322,-0.680519,-0.721445,-0.710166,-0.679875,-0.695342,-0.706943,-0.692281,-0.714033,-0.671657,-0.690025,-0.695987,-0.677135,-0.69502,-0.67923,-0.682775,-0.676652,-0.683258,-0.669724,-0.666501,-0.676491,-0.681325,-0.69647,-0.659251,-0.681002,-0.670207,-0.685997,-0.66054,-0.664568,-0.676813,-0.669563,-0.683742,-0.660701,-0.681969,-0.66344,-0.656995,-0.675846,-0.662634,-0.641688,-0.677297,-0.663601,-0.642816,-0.684708,-0.641688,-0.637016,-0.683419,-0.654256,-0.652645,-0.647489,-0.643461,-0.646039,-0.638949,-0.613169,-0.634921,-0.642494,-0.638627,-0.64475,-0.642494,-0.659573,-0.625576,-0.62767,-0.625576,-0.63766,-0.61897,-0.628637,-0.628637,-0.618486,-0.627993,-0.613653,-0.634921,-0.632987,-0.610108,-0.620742,-0.61897,-0.587873,-0.607691,-0.621225,-0.599313,-0.634599,-0.588034,-0.615747,-0.616069,-0.591579,-0.593834,-0.608335,-0.596573,-0.600924,-0.61043,-0.593673,-0.591901,-0.590773,-0.578205,-0.60044,-0.589001,-0.584167,-0.597218,-0.598829,-0.578044,-0.605596,-0.592384,-0.574822,-0.599313,-0.5832,-0.567732,-0.583522,-0.582556,-0.562576,-0.575144,-0.557259,-0.562899,-0.579494,-0.559193,-0.552264,-0.550492,-0.551136,-0.567088,-0.560159,-0.540502,-0.563221,-0.535185,-0.541952,-0.575305,-0.53873,-0.552103,-0.521973,-0.54308,-0.562737,-0.53438,-0.551298,-0.543564,-0.521006,-0.535185,-0.559032,-0.52004,-0.528418,-0.512306,-0.503283,-0.538247,-0.50151,-0.529546,-0.540341,-0.50151,-0.519556,-0.514239,-0.494099,-0.508922,-0.530674,-0.506183,-0.499577,-0.496999,-0.481853,-0.479759,-0.501671,-0.473152,-0.493937,-0.498288,-0.465096,-0.481209,-0.469124,-0.474441,-0.47138,-0.47573,-0.450273,-0.463163,-0.467191,-0.441894,-0.45849,-0.436577,-0.462035,-0.436094,-0.45269,-0.444472,-0.456234,-0.435127,-0.460424,-0.420304,-0.417726,-0.436094,-0.39404,-0.435772,-0.416276,-0.412892,-0.415953,-0.426426,-0.395329,-0.422076,-0.397746,-0.387757,-0.432066,-0.3797,-0.415953,-0.408381,-0.377928,-0.413698,-0.414181,-0.375833,-0.400324,-0.396457,-0.398874,-0.412409,-0.374061,-0.390335,-0.38534,-0.38534,-0.413214,-0.362782,-0.364877,-0.38534,-0.371322,-0.377284,-0.376961,-0.351343,-0.385501,-0.397907,-0.374061,-0.389529,-0.364071,-0.36246,-0.375672,-0.374867,-0.34522,-0.360527,-0.376478,-0.364555,-0.376961,-0.362944,-0.359399,-0.366972,-0.346509,-0.382923,-0.387112,-0.343125,-0.356982,-0.377284,-0.32943,-0.34377,-0.349248,-0.354082,-0.349087,-0.356337,-0.341675,-0.356821,-0.35521,-0.348281,-0.373094,-0.332652,-0.34377,-0.357143,-0.351343,-0.336197,-0.364555,-0.365199,-0.369066,-0.320568,-0.340225,-0.375833,-0.328302,-0.354243,-0.337164,-0.330396,-0.370194,-0.329107,-0.341031,-0.360849,-0.340225,-0.339419,-0.370839,-0.351826,-0.336519,-0.361977,-0.346831,-0.344253,-0.333941,-0.331847,-0.333941,-0.34522,-0.358754,-0.338614,-0.329752,-0.347153,-0.348442,-0.337969,-0.357465,-0.361332,-0.349248,-0.365038,-0.375995,-0.328624,-0.358432,-0.366811,-0.34087,-0.385662,-0.353921,-0.36536,-0.386629,-0.374383,-0.366811,-0.402902,-0.367133,-0.370516,-0.420465,-0.370839,-0.395652,-0.437866,-0.384856,-0.426265,-0.441411,-0.405964,-0.452045,-0.413537,-0.442055,-0.467835,-0.423526,-0.422398,-0.458812,-0.430938,-0.463002,-0.483787,-0.468319,-0.482014,-0.518912,-0.467996,-0.499899,-0.529385,-0.502638,-0.513756,-0.520362,-0.552103,-0.536152,-0.541147,-0.551459,-0.546786,-0.553714,-0.575144,-0.579011,-0.558709,-0.599796,-0.59174,-0.596251,-0.608819,-0.605596,-0.607046,-0.638949,-0.631698,-0.637982,-0.662151,-0.619292,-0.664568,-0.68068,-0.669401,-0.675363,-0.685997,-0.683742,-0.692603,-0.722895,-0.716933,-0.722572,-0.718383,-0.727567,-0.740135,-0.748352,-0.747386,-0.753669,-0.769459,-0.76672,-0.769621,-0.779127,-0.794756,-0.796689,-0.798784,-0.820697,-0.81393,-0.827786,-0.84116,-0.853083,-0.882569,-0.88273,-0.895136,-0.911087,-0.932678,-0.933967,-0.954591,-0.945246,-0.959102,-0.97167,-0.971992,-0.985366,-0.984399,-1.000189,-0.995355,-1.019202,-1.006795,-1.025808,-1.026613,-1.029997,-1.041598,-1.052554,-1.051104,-1.053038,-1.068667,-1.065122,-1.061738,-1.060933,-1.083168,-1.07914,-1.091224,-1.098958,-1.099603,-1.105403,-1.111687,-1.10782,-1.116682,-1.119743,-1.117326,-1.109914,-1.120871,-1.117648,-1.113459,-1.123932,-1.116843,-1.107175,-1.125382,-1.11362,-1.117487,-1.137628,-1.132633,-1.144234,-1.133116,-1.122482,-1.138756,-1.131022,-1.10927,-1.12506,-1.118937,-1.102342,-1.12651,-1.120226,-1.1336,-1.134889,-1.127155,-1.139884,-1.135372,-1.110881,-1.145362,-1.127155,-1.111687,-1.136017,-1.112654,-1.12361,-1.130699,-1.121515,-1.116037,-1.117004,-1.11507,-1.100892,-1.107014,-1.093802,-1.111042,-1.069956,-1.101053,-1.084779,-1.065122,-1.086874,-1.076562,-1.052877,-1.055132,-1.0619,-1.053843,-1.056582,-1.029191,-1.018557,-1.026452,-0.998094,-1.00744,-0.992294,-0.986171,-0.976826,-0.99036,-0.969737,-0.97022,-0.979565,-0.947824,-0.964258,-0.93719,-0.96442,-0.927844,-0.944924,-0.935417,-0.948468,-0.951046,-0.924461,-0.945246,-0.925911,-0.921722,-0.900453,-0.927683,-0.919788,-0.933161,-0.915599,-0.915921,-0.914471,-0.90722,-0.922205,-0.884341,-0.943473,-0.905287,-0.903354,-0.90722,-0.919627,-0.894169,-0.906093,-0.899325,-0.876607,-0.910282,-0.894008,-0.890141,-0.902226,-0.893847,-0.887241,-0.891108,-0.903031,-0.882569,-0.903354,-0.883858,-0.910604,-0.872257,-0.886274,-0.911249,-0.871129,-0.886274,-0.898681,-0.869356,-0.893364,-0.89852,-0.870001,-0.915438,-0.884341,-0.876285,-0.913988,-0.87564,-0.876446,-0.90142,-0.88998,-0.856466,-0.893525,-0.865167,-0.879507,-0.898036,-0.867262,-0.891753,-0.863878,-0.878863,-0.877251,-0.865812,-0.862267,-0.865973,-0.8584,-0.861945,-0.85695,-0.840676,-0.895781,-0.841643,-0.858561,-0.8613,-0.84986,-0.866617,-0.85985,-0.837454,-0.852922,-0.876124,-0.81393,-0.864523,-0.845993,-0.835037,-0.841482,-0.837132,-0.837937,-0.832459,-0.868551,-0.849699,-0.846799,-0.847766,-0.839065,-0.870162,-0.840354,-0.834715,-0.849377,-0.851955,-0.827464,-0.850021,-0.840193,-0.839065,-0.818763,-0.852116,-0.823114,-0.830848,-0.845993,-0.84986,-0.820536,-0.827625,-0.841965,-0.808451,-0.824564,-0.852599,-0.816185,-0.866778,-0.808613,-0.819247,-0.833748,-0.809579,-0.800879,-0.817797,-0.815541,-0.796045,-0.842771,-0.788311,-0.827464,-0.809096,-0.813124,-0.836648,-0.797334,-0.796851,-0.818602,-0.791856,-0.775099,-0.827625,-0.781222,-0.818602,-0.789117,-0.801201,-0.810707,-0.785572,-0.774777,-0.789117,-0.786216,-0.789761,-0.805551,-0.784122,-0.784283,-0.802007,-0.777677,-0.802329,-0.777032,-0.795078,-0.775743,-0.797656,-0.782511,-0.780577,-0.795239,-0.764626,-0.787667,-0.786378,-0.795562,-0.754797,-0.773649,-0.782672,-0.778644,-0.768332,-0.771554,-0.791695,-0.778321,-0.793467,-0.769621,-0.782994,-0.774293,-0.781383,-0.76382,-0.797012,-0.789439,-0.745291,-0.823758,-0.772199,-0.773165,-0.782994,-0.76382,-0.77381,-0.809418,-0.779771,-0.784605,-0.786378,-0.78525,-0.781544,-0.771071,-0.769943,-0.757053,-0.759953,-0.792339,-0.77671,-0.777999,-0.767687,-0.757214,-0.766559,-0.807324,-0.758664,-0.794595,-0.790728,-0.753347,-0.779449,-0.796689,-0.766237,-0.787183,-0.781222,-0.753347,-0.77816,-0.790889,-0.766076,-0.783316,-0.761403,-0.777838,-0.797495,-0.756086,-0.765593,-0.774132,-0.764626,-0.789278,-0.787828,-0.771393,-0.809579,-0.797173,-0.782511,-0.780094,-0.798462,-0.763015,-0.789439,-0.7838,-0.77526,-0.782511,-0.76382,-0.786378,-0.777193,-0.786378,-0.781544,-0.784444,-0.776549,-0.789922,-0.771876,-0.779771,-0.79395,-0.752541,-0.792178,-0.772521,-0.782027,-0.767043,-0.757697,-0.751736,-0.772199,-0.745774,-0.768493,-0.770265,-0.738363,-0.763015,-0.771876,-0.731918,-0.781866,-0.753669,-0.745774,-0.776388,-0.772037,-0.743519,-0.772843,-0.759309,-0.747386,-0.767687,-0.764787,-0.760114,-0.742874,-0.73079,-0.76672,-0.752703,-0.740779,-0.750769,-0.744324,-0.731918,-0.745291,-0.719511,-0.761726,-0.7237,-0.722572,-0.739168,-0.759148,-0.726278,-0.714355,-0.773004,-0.70356,-0.721122,-0.713872,-0.737074,-0.73804,-0.755119,-0.710649,-0.722572,-0.734334,-0.71645,-0.758825,-0.735785,-0.718383,-0.733045,-0.736912,-0.722089,-0.744002,-0.753992,-0.758181,-0.748674,-0.734979,-0.738524,-0.721445,-0.720478,-0.737396,-0.710649,-0.724989,-0.727567,-0.738201,-0.727406,-0.702432,-0.698887,-0.740296,-0.719189,-0.683742,-0.724506,-0.698404,-0.714516,-0.719994,-0.722411,-0.730145,-0.737718,-0.684064,-0.700015,-0.729662,-0.688414,-0.711294,-0.692281,-0.694537,-0.725956,-0.707749,-0.69357,-0.68777,-0.690348,-0.708232,-0.702915,-0.669563,-0.691475,-0.677458,-0.699209,-0.707266,-0.690509,-0.693409,-0.690348,-0.716289,-0.697759,-0.734496,-0.687286,-0.687447,-0.696148,-0.715,-0.700176,-0.691153,-0.723217,-0.730951,-0.696793,-0.689703,-0.728534,-0.690025,-0.701143,-0.747708,-0.692442,-0.686642,-0.714033,-0.728051,-0.714677,-0.721122,-0.693892,-0.721122,-0.700821,-0.691314,-0.707749,-0.687286,-0.695826,-0.705493,-0.698726,-0.68777,-0.710166,-0.678424,-0.683742,-0.709521,-0.650067,-0.691153,-0.677619,-0.705977,-0.699371,-0.677135,-0.674557,-0.691959,-0.684547,-0.684708,-0.705493,-0.651356,-0.704043,-0.692926,-0.67488,-0.695665,-0.67069,-0.678908,-0.680197,-0.676974,-0.659412,-0.705332,-0.653934,-0.673752,-0.682936,-0.649422,-0.65635,-0.674557,-0.650711,-0.672463,-0.666662,-0.66634,-0.675363,-0.664568,-0.674235,-0.680036,-0.657639,-0.66634,-0.682291,-0.656673,-0.671335,-0.676813,-0.642494,-0.675202,-0.654256,-0.667307,-0.691637,-0.654739,-0.652,-0.660862,-0.648778,-0.638949,-0.658767,-0.673752,-0.658123,-0.655867,-0.657317,-0.65345,-0.629604,-0.661668,-0.653611,-0.627993,-0.629604,-0.654417,-0.627831,-0.635888,-0.654739,-0.613814,-0.661345,-0.624931,-0.634115,-0.651839,-0.613975,-0.620903,-0.667146,-0.62187,-0.638143,-0.648939,-0.624448,-0.633632,-0.630893,-0.643138,-0.632987,-0.634438,-0.627348,-0.621064,-0.641849,-0.614297,-0.638305,-0.632665,-0.656028,-0.616714,-0.619614,-0.622514,-0.637499,-0.64056,-0.630248,-0.614619,-0.645233,-0.632987,-0.618809,-0.620098,-0.617842,-0.624609,-0.63766,-0.620581,-0.616875,-0.612364,-0.633954,-0.592545,-0.62912,-0.625737,-0.613169,-0.638305,-0.606241,-0.614619,-0.616553,-0.615264,-0.598829,-0.628959,-0.595446,-0.608013,-0.644427,-0.610752,-0.61478,-0.612525,-0.599635,-0.602374,-0.611558,-0.598668,-0.609786,-0.590612,-0.603341,-0.634599,-0.608335,-0.615908,-0.589001,-0.612041,-0.605919,-0.591256,-0.588034,-0.612202,-0.582878,-0.591579,-0.615908,-0.553553,-0.613491,-0.59609,-0.583845,-0.597218,-0.598024,-0.567249,-0.598024,-0.593834,-0.584006,-0.60463,-0.551298,-0.588839,-0.591095,-0.56306,-0.588839,-0.5832,-0.570955,-0.569827,-0.576433,-0.588195,-0.585939,-0.580461,-0.581589,-0.584973,-0.562737,-0.596251,-0.578689,-0.606724,-0.586584,-0.553714,-0.588517,-0.596735,-0.555648,-0.58755,-0.608497,-0.559193,-0.590773,-0.609463,-0.596251,-0.5861,-0.589323,-0.570955,-0.585134,-0.596896,-0.590612,-0.589484,-0.56306,-0.564671,-0.57595,-0.586584,-0.564026,-0.554037,-0.570955,-0.539697,-0.566443,-0.541952,-0.560804,-0.54018,-0.56161,-0.514884,-0.542758,-0.543241,-0.508761,-0.537441,-0.53164,-0.520362,-0.509728,-0.538085,-0.526646,-0.515528,-0.536796,-0.527773,-0.501027,-0.556937,-0.540341,-0.506666,-0.574499,-0.530996,-0.521651,-0.53438,-0.522456,-0.521812,-0.545175,-0.51585,-0.533896,-0.551459,-0.52729,-0.530029,-0.532768,-0.526646,-0.537119,-0.508116,-0.53873,-0.549364,-0.535507,-0.542114,-0.553231,-0.521167,-0.540986,-0.541147,-0.52874,-0.551459,-0.521006,-0.55162,-0.547914,-0.556131,-0.542758,-0.553876,-0.530513,-0.536635,-0.548236,-0.521651,-0.559515,-0.530029,-0.536958,-0.542114,-0.535346,-0.537763,-0.533574,-0.537924,-0.535669,-0.536474,-0.498771,-0.554037,-0.538569,-0.520201,-0.541469,-0.523584,-0.526001,-0.547431,-0.559193,-0.521973,-0.560804,-0.533413,-0.554681,-0.551298,-0.521329,-0.555487,-0.556776,-0.528418,-0.545175,-0.541791,-0.535024,-0.565477,-0.564349,-0.518751,-0.5832,-0.550492,-0.566443,-0.567732,-0.551136,-0.522779,-0.568377,-0.552103,-0.540019,-0.599474,-0.537763,-0.551136,-0.559032,-0.564349,-0.558709,-0.559515,-0.545175,-0.573049,-0.542758,-0.542114,-0.574016,-0.533091,-0.576111,-0.569343,-0.553553,-0.574661,-0.568216,-0.547914,-0.564832,-0.561287,-0.53873,-0.564671,-0.548881,-0.565638,-0.533091,-0.56306,-0.572727,-0.529707,-0.555003,-0.576433,-0.526484,-0.565799,-0.581911,-0.541952,-0.548075,-0.556454,-0.546464,-0.563543,-0.559998,-0.568377,-0.552425,-0.578528,-0.546947,-0.550492,-0.562093,-0.577883,-0.566765,-0.546303,-0.555809,-0.548558,-0.557581,-0.567732,-0.570955,-0.541147,-0.559837,-0.562093,-0.552425,-0.576111,-0.542436,-0.574822,-0.590128,-0.563865,-0.543241,-0.571921,-0.569988,-0.551942,-0.582717,-0.52874,-0.561448,-0.562737,-0.546786,-0.549203,-0.580783,-0.550009,-0.557581,-0.559354,-0.543403,-0.56596,-0.541147,-0.584811,-0.554681,-0.567088,-0.560321,-0.571599,-0.557904,-0.569021,-0.553392,-0.576755,-0.603341,-0.550492,-0.56886,-0.585778,-0.548236,-0.574822,-0.564349,-0.562093,-0.57321,-0.559515,-0.546786,-0.594318,-0.544047,-0.553876,-0.567732,-0.551942,-0.551781,-0.555648,-0.56596,-0.566121,-0.544369,-0.54598,-0.569343,-0.565154,-0.547431,-0.593512,-0.534702,-0.55597,-0.570632,-0.544208,-0.558065,-0.565154,-0.536796,-0.527935,-0.563865,-0.530513,-0.553392,-0.566282,-0.549203,-0.543403,-0.546303,-0.541791,-0.545658,-0.531963,-0.50715,-0.566443,-0.54598,-0.538247,-0.541469,-0.522456,-0.532768,-0.557581,-0.53164,-0.545014,-0.535507,-0.508277,-0.561126,-0.497321,-0.536152,-0.534541,-0.541469,-0.549686,-0.533896,-0.516817,-0.550975,-0.521167,-0.522618,-0.546303,-0.507472,-0.519234,-0.546142,-0.513595,-0.515206,-0.519073,-0.52439,-0.5115,-0.516495,-0.501833,-0.527451,-0.523423,-0.518912,-0.546786,-0.525195,-0.560804,-0.502799,-0.520523,-0.541791,-0.545819,-0.530513,-0.551781,-0.573372,-0.540341,-0.599957,-0.567249,-0.588356,-0.581428,-0.577561,-0.609947,-0.624126,-0.621387,-0.627026,-0.656673,-0.62477,-0.672785,-0.660701,-0.666662,-0.656673,-0.69792,-0.666501,-0.661829,-0.655061,-0.649744,-0.66054,-0.615747,-0.634115,-0.610752,-0.578205,-0.608335,-0.541308,-0.549203,-0.526968,-0.486042,-0.489587,-0.50006,-0.412086,-0.422721,-0.389207,-0.328624,-0.358432,-0.280126,-0.240489,-0.207298,-0.164922,-0.106595,-0.108367,-0.019104,0.043251,0.057591,0.136703,0.179401,0.270275,0.327152,0.42141,0.468297,0.535003,0.579473,0.617821,0.660842,0.701445,0.745916,0.785391,0.821322,0.850647,0.883033,0.913808,0.939105,0.964401,0.986959,1.013706,1.031591,1.055115,1.073645,1.08444,1.103131,1.118276,1.128911,1.144057,1.159041,1.164197,1.177732,1.181438,1.192716,1.207218,1.213018,1.215919,1.228164,1.237832,1.239765,1.249594,1.247177,1.262323,1.262645,1.255717,1.268446,1.277952,1.267318,1.247016,1.229292,1.184499,1.111348,1.023051,0.982125,0.860314,0.783135,0.716752,0.57045,0.477804,0.382257,0.268986,0.155393,0.068547,-0.058097,-0.127541,-0.241134,-0.331685,-0.385018,-0.505377,-0.582878,-0.629765,-0.676813,-0.72934,-0.754958,-0.794595,-0.814896,-0.838421,-0.846155,-0.847282,-0.869517,-0.860333,-0.8555,-0.850827,-0.853727,-0.843093,-0.844704,-0.83552,-0.840837,-0.860978,-0.848732,-0.868712,-0.87274,-0.873546,-0.893364,-0.890464,-0.896425,-0.91286,-0.912376,-0.904804,-0.916566,-0.911732,-0.910604,-0.932678,-0.91576,-0.938156,-0.93864,-0.935256,-0.937673,-0.942668,-0.938479,-0.949596,-0.94444,-0.943796,-0.95153,-0.958136,-0.94879,-0.945085,-0.95443,-0.969414,-0.960069,-0.950724,-0.96023,-0.952174,-0.952819,-0.950402,-0.950885,-0.953785,-0.952819,-0.95153,-0.936867,-0.94009,-0.924139,-0.913343,-0.915277,-0.899487,-0.880313,-0.880957,-0.851149,-0.823275,-0.823758,-0.783961,-0.781705,-0.767204,-0.724345,-0.755281,-0.709038,-0.678586,-0.702915,-0.668435,-0.637821,-0.662473,-0.624931,-0.610269,-0.647166,-0.598668,-0.619131,-0.611397,-0.599635,-0.573049,-0.598346,-0.586906,-0.582878,-0.594318,-0.583039,-0.568054,-0.574822,-0.594157,-0.566604,-0.570794,-0.584489,-0.56741,-0.585456,-0.584328,-0.568699,-0.598829,-0.598507,-0.583845,-0.60753,-0.595607,-0.586423,-0.603985,-0.595446,-0.602535,-0.609947,-0.605274,-0.602535,-0.608174,-0.610913,-0.592868,-0.617681,-0.616392,-0.594962,-0.612525,-0.601891,-0.5832,-0.606241
 18:12:21.76516,-0.625254,-0.5861,-0.620259,-0.608335,-0.605919,-0.615425,-0.605919,-0.608497,-0.612525,-0.60463,-0.630571,-0.607691,-0.603018,-0.648616,-0.590128,-0.637821,-0.633954,-0.622514,-0.637982,-0.66054,-0.60898,-0.645072,-0.633954,-0.626381,-0.657317,-0.612202,-0.648616,-0.644588,-0.625092,-0.635727,-0.650067,-0.639271,-0.660056,-0.632021,-0.611719,-0.668274,-0.640721,-0.63186,-0.655545,-0.613653,-0.633632,-0.637982,-0.628315,-0.62332,-0.636854,-0.631054,-0.615747,-0.647328,-0.633632,-0.629765,-0.639916,-0.63766,-0.624287,-0.645877,-0.637499,-0.645877,-0.641849,-0.647972,-0.649261,-0.62622,-0.642816,-0.636854,-0.657801,-0.661668,-0.643622,-0.651678,-0.657639,-0.647166,-0.638143,-0.669563,-0.634115,-0.642172,-0.658284,-0.643461,-0.658606,-0.664568,-0.634921,-0.664729,-0.660056,-0.655384,-0.658445,-0.650711,-0.630409,-0.652806,-0.64201,-0.641849,-0.656512,-0.61478,-0.637016,-0.652322,-0.61478,-0.647972,-0.640721,-0.63331,-0.643783,-0.61897,-0.624609,-0.639271,-0.638466,-0.634921,-0.610913,-0.611397,-0.621064,-0.612202,-0.585456,-0.62042,-0.604791,-0.609624,-0.609463,-0.588034,-0.591579,-0.61043,-0.592062,-0.594157,-0.619131,-0.580622,-0.621548,-0.575788,-0.591417,-0.616231,-0.596735,-0.591579,-0.603018,-0.60608,-0.584973,-0.601246,-0.585617,-0.598668,-0.587067,-0.596251,-0.576433,-0.593512,-0.585939,-0.570632,-0.584489,-0.564671,-0.608497,-0.560159,-0.587873,-0.56451,-0.589323,-0.582878,-0.559837,-0.574983,-0.593029,-0.551459,-0.576272,-0.595123,-0.557743,-0.573533,-0.581911,-0.569343,-0.566443,-0.568538,-0.568054,-0.5803,-0.578044,-0.566927,-0.569666,-0.565154,-0.548075,-0.558226,-0.560482,-0.544853,-0.543403,-0.548236,-0.536796,-0.562093,-0.542597,-0.539052,-0.556292,-0.534057,-0.552748,-0.502638,-0.544691,-0.547431,-0.537441,-0.506666,-0.54018,-0.522456,-0.517945,-0.540986,-0.51585,-0.53019,-0.533735,-0.525679,-0.516334,-0.519234,-0.523423,-0.504894,-0.499093,-0.495871,-0.522456,-0.468158,-0.526646,-0.494099,-0.499416,-0.490715,-0.495549,-0.494099,-0.496838,-0.489587,-0.485237,-0.498771,-0.495871,-0.484109,-0.46703,-0.480403,-0.512789,-0.477503,-0.483787,-0.47573,-0.461713,-0.475247,-0.485398,-0.441411,-0.474119,-0.472025,-0.449467,-0.469608,-0.47573,-0.444795,-0.46848,-0.448823,-0.443344,-0.471219,-0.440928,-0.430938,-0.460262,-0.42546,-0.438188,-0.448662,-0.43835,-0.415792,-0.453979,-0.43271,-0.412086,-0.465418,-0.407092,-0.422721,-0.425782,-0.428843,-0.40403,-0.415792,-0.420143,-0.40548,-0.405803,-0.399196,-0.442539,-0.381473,-0.395329,-0.399196,-0.39114,-0.39968,-0.418209,-0.371966,-0.40113,-0.391463,-0.373578,-0.429004,-0.369227,-0.39404,-0.393235,-0.388723,-0.381795,-0.39678,-0.363588,-0.375028,-0.403869,-0.362944,-0.390012,-0.363588,-0.393074,-0.360527,-0.399358,-0.392913,-0.385823,-0.391463,-0.391946,-0.386145,-0.362138,-0.385179,-0.356821,-0.390818,-0.385984,-0.347476,-0.3739,-0.387434,-0.370194,-0.388885,-0.366166,-0.3681,-0.416759,-0.386145,-0.337003,-0.368905,-0.363427,-0.353921,-0.335875,-0.345864,-0.358593,-0.341836,-0.344253,-0.378089,-0.322663,-0.332652,-0.374867,-0.328302,-0.352954,-0.35102,-0.33813,-0.344253,-0.347959,-0.332974,-0.344575,-0.341836,-0.33088,-0.365844,-0.317023,-0.335875,-0.348765,-0.338292,-0.34087,-0.348603,-0.328141,-0.352954,-0.380184,-0.318151,-0.360204,-0.345542,-0.323146,-0.328785,-0.350859,-0.327335,-0.346509,-0.351665,-0.332008,-0.358915,-0.328624,-0.340386,-0.341031,-0.367616,-0.353437,-0.357143,-0.361816,-0.351826,-0.374706,-0.349087,-0.381795,-0.355048,-0.357788,-0.357949,-0.358915,-0.364555,-0.374383,-0.388723,-0.383567,-0.396135,-0.384534,-0.408381,-0.394524,-0.414826,-0.415953,-0.416114,-0.439477,-0.437866,-0.421432,-0.442378,-0.440928,-0.459779,-0.456073,-0.455429,-0.438994,-0.48717,-0.463968,-0.482175,-0.475569,-0.495871,-0.515367,-0.521167,-0.492971,-0.512467,-0.530351,-0.513272,-0.57031,-0.563704,-0.557259,-0.569343,-0.589162,-0.567732,-0.590451,-0.587067,-0.591579,-0.602052,-0.598507,-0.636854,-0.612364,-0.639755,-0.642333,-0.651678,-0.660056,-0.665857,-0.665696,-0.652645,-0.701465,-0.66199,-0.698726,-0.705493,-0.708877,-0.700821,-0.725795,-0.725312,-0.725312,-0.752703,-0.741907,-0.765754,-0.756731,-0.780899,-0.798301,-0.797817,-0.81973,-0.847605,-0.844221,-0.875479,-0.874673,-0.890464,-0.907543,-0.903837,-0.92285,-0.915116,-0.92865,-0.929456,-0.949596,-0.934773,-0.953624,-0.958297,-0.971509,-0.970542,-0.991005,-0.988588,-1.003734,-1.008406,-1.028386,-1.020168,-1.029352,-1.031447,-1.032253,-1.052232,-1.050782,-1.051588,-1.052071,-1.074306,-1.076078,-1.072856,-1.066894,-1.074145,-1.081396,-1.088485,-1.087196,-1.09638,-1.101858,-1.102664,-1.10927,-1.111042,-1.105242,-1.11362,-1.112009,-1.102664,-1.113943,-1.10782,-1.127155,-1.134566,-1.121838,-1.144234,-1.1336,-1.124577,-1.133116,-1.126671,-1.125866,-1.119743,-1.135211,-1.135372,-1.141495,-1.131988,-1.137467,-1.144878,-1.1365,-1.134566,-1.128283,-1.134566,-1.116521,-1.142945,-1.132311,-1.122643,-1.141978,-1.11781,-1.130699,-1.131988,-1.13215,-1.12361,-1.128121,-1.116521,-1.113137,-1.125866,-1.101214,-1.119743,-1.102986,-1.11507,-1.105564,-1.11072,-1.118776,-1.101858,-1.091385,-1.098152,-1.08784,-1.068828,-1.095413,-1.030319,-1.076723,-1.063511,-1.052554,-1.047398,-1.040631,-1.018074,-1.025969,-1.013401,-1.009695,-1.009373,-0.98311,-0.987944,-1.014529,-0.96732,-0.992938,-0.966997,-0.977148,-0.955074,-0.95588,-0.935901,-0.94734,-0.960553,-0.927361,-0.945246,-0.918499,-0.941701,-0.92865,-0.953624,-0.927039,-0.920594,-0.911893,-0.92285,-0.932678,-0.887241,-0.929133,-0.923172,-0.909315,-0.900937,-0.91576,-0.886597,-0.928167,-0.920594,-0.906415,-0.906093,-0.905448,-0.891591,-0.887402,-0.883052,-0.900453,-0.894008,-0.884663,-0.880957,-0.903515,-0.865812,-0.910765,-0.89852,-0.874512,-0.917855,-0.897392,-0.870484,-0.890625,-0.888047,-0.869034,-0.893364,-0.876929,-0.880635,-0.880796,-0.864362,-0.889336,-0.863395,-0.88418,-0.889336,-0.860978,-0.876124,-0.906737,-0.857111,-0.861622,-0.866134,-0.839548,-0.889819,-0.869679,-0.847282,-0.877574,-0.871451,-0.84406,-0.883535,-0.842771,-0.843738,-0.859528,-0.831976,-0.880957,-0.855822,-0.850183,-0.86984,-0.852761,-0.844866,-0.851633,-0.83971,-0.845671,-0.874673,-0.850827,-0.865489,-0.843577,-0.841643,-0.857594,-0.853405,-0.850988,-0.853888,-0.840354,-0.840515,-0.866134,-0.857111,-0.834231,-0.867262,-0.829236,-0.855016,-0.847927,-0.849216,-0.852277,-0.850344,-0.843577,-0.818763,-0.863073,-0.807968,-0.840354,-0.84406,-0.835037,-0.866134,-0.860495,-0.81393,-0.84986,-0.848732,-0.832459,-0.867584,-0.852761,-0.847927,-0.851472,-0.83262,-0.853083,-0.846799,-0.836809,-0.847282,-0.824725,-0.826175,-0.880957,-0.794595,-0.828431,-0.846316,-0.80394,-0.836165,-0.818763,-0.793789,-0.815863,-0.833265,-0.793789,-0.838904,-0.828592,-0.806357,-0.846477,-0.824403,-0.802007,-0.814252,-0.824403,-0.814574,-0.847766,-0.790728,-0.814252,-0.820536,-0.825853,-0.820214,-0.798945,-0.821341,-0.810063,-0.824403,-0.838421,-0.841482,-0.78525,-0.814574,-0.822953,-0.810546,-0.822953,-0.799912,-0.826981,-0.803618,-0.799267,-0.817958,-0.827142,-0.807646,-0.79395,-0.829075,-0.795562,-0.816185,-0.812157,-0.793789,-0.819408,-0.810224,-0.782994,-0.817958,-0.826175,-0.790889,-0.824403,-0.798623,-0.800073,-0.843415,-0.798784,-0.794917,-0.822147,-0.801201,-0.7867,-0.821341,-0.806518,-0.817636,-0.811029,-0.799751,-0.814091,-0.798945,-0.817152,-0.820214,-0.796528,-0.807485,-0.812318,-0.804423,-0.817152,-0.816669,-0.798301,-0.821825,-0.797334,-0.817152,-0.82972,-0.797978,-0.803134,-0.840032,-0.782511,-0.807163,-0.837132,-0.782188,-0.822469,-0.795884,-0.818119,-0.799912,-0.815702,-0.814735,-0.818119,-0.828592,-0.801362,-0.816991,-0.799912,-0.823597,-0.790406,-0.836004,-0.813607,-0.815541,-0.808129,-0.810546,-0.803134,-0.815863,-0.838421,-0.799912,-0.822308,-0.823597,-0.800718,-0.831331,-0.833909,-0.790083,-0.840354,-0.815541,-0.800879,-0.825853,-0.823758,-0.805712,-0.814413,-0.805551,-0.808451,-0.812318,-0.814896,-0.823436,-0.796367,-0.79395,-0.788311,-0.810707,-0.789439,-0.807001,-0.802651,-0.786539,-0.79959,-0.802812,-0.792661,-0.787505,-0.766237,-0.760598,-0.805712,-0.778482,-0.775582,-0.772843,-0.790244,-0.771071,-0.7867,-0.782833,-0.784122,-0.749158,-0.774454,-0.773971,-0.761726,-0.793628,-0.765593,-0.771393,-0.782349,-0.775099,-0.780899,-0.784927,-0.758342,-0.759953,-0.781866,-0.76382,-0.795562,-0.751252,-0.770104,-0.763498,-0.763015,-0.75238,-0.767526,-0.765754,-0.754475,-0.790889,-0.766398,-0.774777,-0.758503,-0.761403,-0.755925,-0.761887,-0.737235,-0.776388,-0.773971,-0.738201,-0.774777,-0.750286,-0.748513,-0.771071,-0.749641,-0.748997,-0.771232,-0.767848,-0.769459,-0.76092,-0.744969,-0.755764,-0.764626,-0.720156,-0.761242,-0.748191,-0.734334,-0.746419,-0.750447,-0.722089,-0.76382,-0.729662,-0.747386,-0.77816,-0.737235,-0.752864,-0.724184,-0.737074,-0.764626,-0.738363,-0.755764,-0.75093,-0.701626,-0.750286,-0.781866,-0.720961,-0.75383,-0.749802,-0.746902,-0.741907,-0.73369,-0.720156,-0.755764,-0.734979,-0.721767,-0.777999,-0.705816,-0.730145,-0.737718,-0.73224,-0.721606,-0.722411,-0.727567,-0.721283,-0.728695,-0.742391,-0.734334,-0.71081,-0.722089,-0.737557,-0.724828,-0.71226,-0.712099,-0.726278,-0.707427,-0.741102,-0.725473,-0.752219,-0.737074,-0.724345,-0.723378,-0.725956,-0.723861,-0.717255,-0.73804,-0.712905,-0.729823,-0.7179,-0.7179,-0.733851,-0.709521,-0.718383,-0.725795,-0.723378,-0.695181,-0.724023,-0.7179,-0.710649,-0.717578,-0.727084,-0.736268,-0.712583,-0.719511,-0.715966,-0.711133,-0.724023,-0.722734,-0.704688,-0.732079,-0.718061,-0.707749,-0.743841,-0.68358,-0.720639,-0.726278,-0.693731,-0.706138,-0.707427,-0.681486,-0.730629,-0.692764,-0.708232,-0.748836,-0.705977,-0.688897,-0.710166,-0.673913,-0.695342,-0.706621,-0.677458,-0.687609,-0.688414,-0.685514,-0.681325,-0.68922,-0.66199,-0.702754,-0.685997,-0.665857,-0.673107,-0.673752,-0.689059,-0.668757,-0.68632,-0.671335,-0.692926,-0.663923,-0.707749,-0.668274,-0.677297,-0.685836,-0.697598,-0.669079,-0.697598,-0.684547,-0.640883,-0.679391,-0.655545,-0.700498,-0.669885,-0.662795,-0.664084,-0.681969,-0.678102,-0.660217,-0.682614,-0.668757,-0.67343,-0.668113,-0.665373,-0.645716,-0.661023,-0.675202,-0.661023,-0.640238,-0.665373,-0.663118,-0.641849,-0.666018,-0.642977,-0.647328,-0.664084,-0.651517,-0.652161,-0.669885,-0.63766,-0.637177,-0.684869,-0.627831,-0.638466,-0.640399,-0.647166,-0.665857,-0.637821,-0.622676,-0.634438,-0.636854,-0.648939,-0.638949,-0.641205,-0.628476,-0.659251,-0.606885,-0.666985,-0.623642,-0.633954,-0.635404,-0.624448,-0.646522,-0.653128,-0.632182,-0.646683,-0.63621,-0.621225,-0.661668,-0.65345,-0.622031,-0.626543,-0.647811,-0.6549,-0.622353,-0.664407,-0.643461,-0.638949,-0.645072,-0.636693,-0.639594,-0.617681,-0.625415,-0.634276,-0.644911,-0.619453,-0.643622,-0.620581,-0.634599,-0.638627,-0.62477,-0.643783,-0.625898,-0.626381,-0.647489,-0.631537,-0.611719,-0.636532,-0.634115,-0.610591,-0.656512,-0.609947,-0.62622,-0.638305,-0.641849,-0.636049,-0.621548,-0.610591,-0.654256,-0.621548,-0.620742,-0.666662,-0.575305,-0.652161,-0.637982,-0.607691,-0.636693,-0.622192,-0.588517,-0.625415,-0.614942,-0.611075,-0.63621,-0.578528,-0.615908,-0.630087,-0.57176,-0.627509,-0.597862,-0.576111,-0.589645,-0.601729,-0.575466,-0.596896,-0.590451,-0.573694,-0.602857,-0.574338,-0.576272,-0.589645,-0.568699,-0.572083,-0.584811,-0.579978,-0.574338,-0.56886,-0.559837,-0.569505,-0.547592,-0.573855,-0.578044,-0.563221,-0.568216,-0.561126,-0.559032,-0.539374,-0.592706,-0.537924,-0.56886,-0.57176,-0.581267,-0.556292,-0.544369,-0.558709,-0.583845,-0.552425,-0.562737,-0.569505,-0.558709,-0.549203,-0.558065,-0.54308,-0.574177,-0.569505,-0.534541,-0.568377,-0.583522,-0.544369,-0.550492,-0.575788,-0.543403,-0.564671,-0.554842,-0.546464,-0.56161,-0.545336,-0.520201,-0.553231,-0.536958,-0.531318,-0.580622,-0.543886,-0.555165,-0.551298,-0.559032,-0.547108,-0.550975,-0.566927,-0.539052,-0.540986,-0.533252,-0.564026,-0.531479,-0.560804,-0.539697,-0.542597,-0.555326,-0.543886,-0.543241,-0.552264,-0.559676,-0.555809,-0.563382,-0.560643,-0.56451,-0.574177,-0.56886,-0.567088,-0.562415,-0.550653,-0.562899,-0.561287,-0.557098,-0.593673,-0.581911,-0.552748,-0.581267,-0.542114,-0.580139,-0.588195,-0.571277,-0.566282,-0.596896,-0.55887,-0.57031,-0.624609,-0.549364,-0.571438,-0.552264,-0.591579,-0.573372,-0.590451,-0.575627,-0.569988,-0.5774,-0.555809,-0.570794,-0.546947,-0.57031,-0.561448,-0.568216,-0.567732,-0.56596,-0.576916,-0.570955,-0.578366,-0.568216,-0.578528,-0.556615,-0.558226,-0.552587,-0.558709,-0.589323,-0.550653,-0.564671,-0.576272,-0.571116,-0.571116,-0.570471,-0.598346,-0.572244,-0.592706,-0.580461,-0.585617,-0.603824,-0.579494,-0.568216,-0.58465,-0.585134,-0.586584,-0.610269,-0.564026,-0.602857,-0.596735,-0.572083,-0.600118,-0.599635,-0.5774,-0.616231,-0.589967,-0.575305,-0.625898,-0.566765,-0.599957,-0.615586,-0.565477,-0.592062,-0.599151,-0.595768,-0.589806,-0.606724,-0.591901,-0.618164,-0.570471,-0.591095,-0.576111,-0.596573,-0.578689,-0.592223,-0.613975,-0.59319,-0.571116,-0.570632,-0.616392,-0.605919,-0.590612,-0.575627,-0.560804,-0.578366,-0.565477,-0.578528,-0.569505,-0.563865,-0.582878,-0.568538,-0.560482,-0.575788,-0.582072,-0.551942,-0.581911,-0.589645,-0.566765,-0.566604,-0.585617,-0.582395,-0.558387,-0.599957,-0.564832,-0.590934,-0.564832,-0.578044,-0.564026,-0.587712,-0.564349,-0.595607,-0.537763,-0.539697,-0.596735,-0.523101,-0.564993,-0.563221,-0.551459,-0.54308,-0.563221,-0.525679,-0.564993,-0.549686,-0.524068,-0.570955,-0.513272,-0.545497,-0.547269,-0.544047,-0.534702,-0.556292,-0.539697,-0.540502,-0.539536,-0.539697,-0.549203,-0.511661,-0.539213,-0.533574,-0.528418,-0.532285,-0.550492,-0.513433,-0.521167,-0.556776,-0.515528,-0.521167,-0.522779,-0.53873,-0.54453,-0.504249,-0.542919,-0.522779,-0.521812,-0.521329,-0.522618,-0.54163,-0.529868,-0.526323,-0.511661,-0.54453,-0.528257,-0.546142,-0.530674,-0.54598,-0.52874,-0.564671,-0.545658,-0.514722,-0.563865,-0.538085,-0.562254,-0.575788,-0.570632,-0.592545,-0.587067,-0.59609,-0.613491,-0.612686,-0.635565,-0.632665,-0.633793,-0.649261,-0.666501,-0.645877,-0.678102,-0.667146,-0.660701,-0.681002,-0.684225,-0.665373,-0.666018,-0.647328,-0.638788,-0.629765,-0.605919,-0.631054,-0.59174,-0.566282,-0.546625,-0.556776,-0.491521,-0.514078,-0.472347,-0.439316,-0.443183,-0.390012,-0.361655,-0.368905,-0.312028,-0.271103,-0.252412,-0.192474,-0.165889,-0.139787,-0.060352,-0.036989,0.019243,0.068869,0.132997,0.192774,0.269308,0.340203,0.404331,0.467169,0.522113,0.568517,0.60767,0.652946,0.690972,0.730125,0.775401,0.810527,0.838563,0.875944,0.903174,0.928309,0.955701,0.979547,1.009355,1.026918,1.04432,1.066072,1.082668,1.094591,1.11457,1.127138,1.142929,1.148085,1.162586,1.176604,1.188688,1.193844,1.205123,1.213502,1.218497,1.220914,1.237187,1.237993,1.240249,1.256683,1.243632,1.259261,1.26619,1.257811,1.246049,1.24041,1.1903,1.154046,1.121982,0.993404,0.980192,0.88255,0.774274,0.691455,0.585596,0.477965,0.387574,0.289449,0.198575,0.072253,-0.021199,-0.085327,-0.216321,-0.28077,-0.38389,-0.479275,-0.539536,-0.592868,-0.664246,-0.702754,-0.749158,-0.794756,-0.796689,-0.824886,-0.837454,-0.858722,-0.8584,-0.869679,-0.861945,-0.864523,-0.856789,-0.845993,-0.84986,-0.843899,-0.82682,-0.84551,-0.848571,-0.857433,-0.863073,-0.873062,-0.890786,-0.884019,-0.898681,-0.921561,-0.914149,-0.908832,-0.928972,-0.906254,-0.928328,-0.918983,-0.931067,-0.929778,-0.939768,-0.938156,-0.940895,-0.961519,-0.938156,-0.961519,-0.951852,-0.949274,-0.966353,-0.966997,-0.953141,-0.97312,-0.963775,-0.967481,-0.989394,-0.964742,-0.978437,-0.97876,-0.98456,-0.982627,-0.980049,-0.96877,-0.977793,-0.983432,-0.972637,-0.986655,-0.979082,-0.975054,-0.973765,-0.967803,-0.966997,-0.952496,-0.949918,-0.937351,-0.929294,-0.923655,-0.915438,-0.884502,-0.869356,-0.867262,-0.815702,-0.834876,-0.7954,-0.770426,-0.773004,-0.739168,-0.708232,-0.722411,-0.684225,-0.68213,-0.671174,-0.660701,-0.676974,-0.649905,-0.630087,-0.653289,-0.639432,-0.613975,-0.630248,-0.644588,-0.585456,-0.627831,-0.603985,-0.605435,-0.601246,-0.621709,-0.62332,-0.629443,-0.609463,-0.596735,-0.639271,-0.606724,-0.635565,-0.635082,-0.624126,-0.619936,-0.631054,-0.633793,-0.636693,-0.641366,-0.641205,-0.664084,-0.620098,-0.656189,-0.638949,-0.645072,-0.634599,-0.64056,-0.646683,-0.6462,-0.63766,-0.644588,-0.666501,-0.622837,-0.645394,-0.66779,-0.637821,-0.645394,-0.663118,-0.649261,-0.651033,-0.667307,-0.663601,-0.678908,-0.657156,-0.64475,-0.674396,-0.665373,-0.655384,-0.668113,-0.673268,-0.676169,-0.671496,-0.675524,-0.695504,-0.66634,-0.672302,-0.689864,-0.665212,-0.674396,-0.67778,-0.678747,-0.679875,-0.670852,-0.654095,-0.658767,-0.689864,-0.64056,-0.678747,-0.658606,-0.652,-0.667146,-0.680519,-0.666824,-0.664568,-0.644427,-0.648778,-0.665051,-0.63331,-0.665373,-0.646844,-0.653128,-0.647811,-0.646844,-0.670529,-0.654739,-0.643299,-0.659895,-0.66634,-0.640238,-0.659251,-0.673752,-0.629282,-0.645716,-0.683742,-0.631537,-0.647811,-0.670529,-0.647005,-0.660379,-0.665535,-0.642977,-0.671979,-0.646522,-0.658123,-0.666018,-0.680036,-0.654739,-0.683742,-0.664729,-0.678586,-0.68358,-0.641205,-0.678747,-0.684547,-0.656512,-0.674557,-0.686481,-0.663118,-0.68632,-0.661506,-0.662312,-0.692764,-0.640077,-0.685031,-0.666824,-0.662151,-0.657478,-0.666985,-0.645555,-0.654417,-0.659573,-0.669724,-0.657317,-0.637499,-0.645555,-0.64765,-0.631376,-0.654578,-0.64475,-0.617358,-0.648294,-0.645877,-0.647166,-0.654256,-0.628476,-0.628959,-0.654417,-0.639432,-0.647972,-0.648455,-0.635082,-0.619614,-0.648778,-0.644266,-0.620903,-0.644911,-0.622837,-0.638305,-0.619775,-0.635404,-0.622514,-0.626381,-0.625092,-0.620903,-0.619614,-0.601246,-0.626865,-0.614297,-0.60608,-0.611558,-0.618647,-0.635082,-0.630732,-0.633149,-0.61188,-0.60608,-0.598507,-0.648133,-0.58175,-0.617197,-0.604146,-0.59754,-0.615103,-0.611558,-0.58755,-0.612364,-0.59174,-0.576755,-0.647972,-0.581911,-0.610591,-0.628798,-0.601085,-0.584489,-0.590773,-0.579978,-0.571277,-0.575627,-0.588034,-0.584973,-0.571277,-0.576594,-0.568377,-0.542436,-0.586262,-0.564832,-0.562093,-0.561448,-0.552264,-0.54308,-0.575466,-0.534218,-0.555165,-0.57031,-0.52584,-0.569182,-0.547753,-0.544691,-0.54308,-0.554359,-0.533091,-0.542919,-0.535669,-0.524068,-0.541952,-0.519717,-0.511017,-0.514884,-0.528096,-0.493132,-0.511983,-0.515528,-0.502477,-0.536958,-0.505377,-0.488298,-0.517462,-0.49571,-0.501833,-0.511178,-0.489104,-0.506827,-0.536796,-0.472508,-0.484592,-0.486365,-0.475892,-0.485881,-0.476375,-0.462035,-0.471219,-0.480725,-0.467835,-0.472347,-0.456396,-0.467835,-0.473314,-0.448823,-0.456879,-0.423526,-0.457362,-0.461713,-0.433033,-0.442378,-0.461068,-0.418692,-0.433838,-0.456557,-0.40113,-0.430777,-0.423848,-0.422559,-0.432388,-0.427071,-0.397585,-0.430455,-0.42546,-0.418692,-0.42691,-0.411925,-0.404191,-0.412086,-0.442217,-0.412086,-0.424171,-0.41257,-0.407736,-0.417403,-0.423848,-0.411281,-0.419176,-0.423526,-0.44415,-0.404514,-0.425621,-0.428843,-0.424976,-0.397746,-0.436738,-0.414503,-0.412892,-0.445117,-0.385179,-0.419015,-0.420465,-0.436255,-0.399358,-0.408219,-0.383245,-0.430777,-0.406125,-0.410797,-0.413214,-0.388401,-0.417081,-0.407092,-0.396457,-0.421432,-0.402902,-0.388401,-0.429166,-0.396618,-0.39114,-0.434966,-0.374544,-0.402258,-0.404352,-0.376639,-0.404836,-0.400002,-0.380023,-0.395652,-0.395491,-0.390496,-0.405964,-0.39678,-0.372933,-0.385662,-0.404514,-0.401291,-0.393879,-0.415148,-0.394846,-0.391624,-0.411442,-0.387112,-0.422721,-0.398391,-0.388562,-0.410314,-0.429971,-0.378573,-0.40693,-0.382762,-0.400163,-0.402097,-0.371161,-0.415792,-0.373094,-0.385823,-0.403386,-0.410475,-0.386629,-0.399035,-0.405803,-0.396457,-0.406125,-0.401936,-0.409186,-0.397102,-0.394363,-0.419659,-0.392268,-0.432871,-0.419176,-0.414826,-0.432227,-0.413698,-0.421754,-0.452045,-0.416598,-0.422559,-0.475892,-0.429327,-0.460262,-0.476858,-0.445117,-0.460424,-0.488459,-0.44415,-0.474603,-0.506183,-0.448178,-0.496677
