 18:35:46.23949,-1.164213,-1.152129,-1.133922,-1.132633,-1.172431,-1.167113,-1.154224,-1.12941,-1.155835,-1.169369,-1.170497,-1.166469,-1.149229,-1.153901,-1.15374,-1.170497,-1.174525,-1.180487,-1.172108,-1.154224,-1.171303,-1.153901,-1.14794,-1.165986,-1.166952,-1.15084,-1.156479,-1.160507,-1.166791,-1.165986,-1.165986,-1.178553,-1.172431,-1.177264,-1.175331,-1.174203,-1.176781,-1.184515,-1.176298,-1.174364,-1.191443,-1.169047,-1.178392,-1.174847,-1.171464,-1.181453,-1.180809,-1.164535,-1.175653,-1.178714,-1.177909,-1.179198,-1.173236,-1.168402,-1.182742,-1.168886,-1.183548,-1.175331,-1.182098,-1.171786,-1.169853,-1.175975,-1.182742,-1.17517,-1.169691,-1.196438,-1.188543,-1.183065,-1.177748,-1.181292,-1.166791,-1.178392,-1.183065,-1.171947,-1.18242,-1.166147,-1.197405,-1.190799,-1.194182,-1.190154,-1.172269,-1.168725,-1.193699,-1.180648,-1.193054,-1.200466,-1.181615,-1.217868,-1.202722,-1.211745,-1.222379,-1.218029,-1.204655,-1.196599,-1.195632,-1.182742,-1.191282,-1.185965,-1.199016,-1.213678,-1.201433,-1.192893,-1.187093,-1.178876,-1.19821,-1.197727,-1.204172,-1.184837,-1.19096,-1.200305,-1.210295,-1.2053,-1.20965,-1.203527,-1.201755,-1.202077,-1.220607,-1.196599,-1.174686,-1.206267,-1.202077,-1.214162,-1.210617,-1.189187,-1.197083,-1.209811,-1.223023,-1.200144,-1.201755,-1.214645,-1.220123,-1.190476,-1.194505,-1.215451,-1.218512,-1.201594,-1.207878,-1.199016,-1.2053,-1.200788,-1.201916,-1.211906,-1.200144,-1.194505,-1.210456,-1.170336,-1.19531,-1.2082,-1.187415,-1.193054,-1.204816,-1.174847,-1.184837,-1.213195,-1.163891,-1.192088,-1.184515,-1.165986,-1.176781,-1.16808,-1.148423,-1.155029,-1.148745,-1.138433,-1.13215,-1.08784,-1.120226,-1.088485,-1.094608,-1.108787,-1.109753,-1.117326,-1.14939,-1.152935,-1.162441,-1.182259,-1.192571,-1.194343,-1.192732,-1.182742,-1.182742,-1.203044,-1.201272,-1.184676,-1.204816,-1.204655,-1.184837,-1.204816,-1.189349,-1.220284,-1.195955,-1.206428,-1.206267,-1.198694,-1.196277,-1.2082,-1.205461,-1.198049,-1.211423,-1.191604,-1.230113,-1.191121,-1.19676,-1.226085,-1.197405,-1.194988,-1.222701,-1.215451,-1.177587,-1.227374,-1.217706,-1.198694,-1.228018,-1.213195,-1.21674,-1.223829,-1.20675,-1.209972,-1.22109,-1.202238,-1.216579,-1.224312,-1.198049,-1.216579,-1.190799,-1.218673,-1.219479,-1.212712,-1.217223,-1.205783,-1.216417,-1.200144,-1.225924,-1.194505,-1.216579,-1.204655,-1.198372,-1.220768,-1.208845,-1.200466,-1.224151,-1.22544,-1.181453,-1.227535,-1.199338,-1.219479,-1.220284,-1.214001,-1.239297,-1.212873,-1.21529,-1.218834,-1.235108,-1.198694,-1.224474,-1.230919,-1.202561,-1.221896,-1.209167,-1.215451,-1.222379,-1.207072,-1.218029,-1.221896,-1.185482,-1.230274,-1.223346,-1.216901,-1.239942,-1.235913,-1.216579,-1.235108,-1.214645,-1.237041,-1.228341,-1.238008,-1.20385,-1.250737,-1.202722,-1.222379,-1.215773,-1.226085,-1.221896,-1.210456,-1.219801,-1.216095,-1.235913,-1.204494,-1.234786,-1.22109,-1.209811,-1.240747,-1.209167,-1.237202,-1.224635,-1.212873,-1.222862,-1.218673,-1.219157,-1.20965,-1.233658,-1.20965,-1.20965,-1.229307,-1.217868,-1.210778,-1.22963,-1.209811,-1.224635,-1.216256,-1.208039,-1.241875,-1.192571,-1.217062,-1.225924,-1.208361,-1.213034,-1.225763,-1.206589,-1.2082,-1.217062,-1.213195,-1.228663,-1.184676,-1.216256,-1.220929,-1.19821,-1.211423,-1.218673,-1.202238,-1.206589,-1.237686,-1.223507,-1.21255,-1.232852,-1.218351,-1.21674,-1.219801,-1.230757,-1.198533,-1.221734,-1.214645,-1.212873,-1.216095,-1.218029,-1.220929,-1.18097,-1.225118,-1.201594,-1.202561,-1.208039,-1.2024,-1.195794,-1.204655,-1.199177,-1.171625,-1.193377,-1.179037,-1.194505,-1.159702,-1.165341,-1.155674,-1.16663,-1.155674,-1.163891,-1.151162,-1.166469,-1.175814,-1.149551,-1.164535,-1.188865,-1.150195,-1.174042,-1.194343,-1.180326,-1.185804,-1.184837,-1.179037,-1.185965,-1.189349,-1.194343,-1.204333,-1.18806,-1.196599,-1.181131,-1.193377,-1.193216,-1.195955,-1.191927,-1.186771,-1.211745,-1.14794,-1.19386,-1.173881,-1.143267,-1.15374,-1.134083,-1.094124,-1.124416,-1.080912,-1.064316,-1.063994,-0.997772,-0.978115,-0.948952,-0.925428,-0.873546,-0.849538,-0.805551,-0.753669,-0.697598,-0.66489,-0.588839,-0.534863,-0.47992,-0.453334,-0.357465,-0.301072,-0.24629,-0.1675,-0.120129,-0.051652,0.035194,0.108506,0.170056,0.248845,0.300405,0.348904,0.394341,0.430755,0.462658,0.495688,0.532103,0.561266,0.592202,0.627328,0.657941,0.686138,0.716269,0.741887,0.760095,0.781041,0.797315,0.803437,0.812944,0.824061,0.820355,0.821483,0.822611,0.809399,0.801343,0.797315,0.76654,0.750427,0.74076,0.680015,0.65343,0.632322,0.551599,0.531297,0.449768,0.399336,0.343426,0.293799,0.219682,0.156199,0.072414,0.021821,-0.060191,-0.157832,-0.200208,-0.313156,-0.427877,-0.463324,-0.595123,-0.695342,-0.756408,-0.880635,-0.980532,-1.059483,-1.121999,-1.144717,-1.120871,-1.122804,-1.15374,-1.128605,-1.171786,-1.125866,-1.167275,-1.134405,-1.171303,-1.128444,-1.179842,-1.145684,-1.190154,-1.144234,-1.182904,-1.158896,-1.185804,-1.154224,-1.170658,-1.182098,-1.164213,-1.186448,-1.163246,-1.194827,-1.185482,-1.18242,-1.192088,-1.167113,-1.194182,-1.169691,-1.186126,-1.208683,-1.176298,-1.184193,-1.187737,-1.196438,-1.176136,-1.189832,-1.203366,-1.186771,-1.171464,-1.209489,-1.198049,-1.186287,-1.188382,-1.193216,-1.225279,-1.190154,-1.187093,-1.18242,-1.184193,-1.200788,-1.216095,-1.214967,-1.200949,-1.193377,-1.189832,-1.176298,-1.186287,-1.175331,-1.187254,-1.185159,-1.183387,-1.184193,-1.187898,-1.17807,-1.191443,-1.192732,-1.16953,-1.19676,-1.18242,-1.192088,-1.184837,-1.203205,-1.202561,-1.209006,-1.212067,-1.188865,-1.215612,-1.184676,-1.187254,-1.201433,-1.194827,-1.184837,-1.18806,-1.201272,-1.207717,-1.187898,-1.186287,-1.200627,-1.170497,-1.200627,-1.194666,-1.159057,-1.193699,-1.188382,-1.179681,-1.166308,-1.169691,-1.157446,-1.166469,-1.175653,-1.151323,-1.145845,-1.1423,-1.110881,-1.099764,-1.09203,-1.068989,-1.067217,-1.026774,-0.994227,-1.02468,-0.97312,-0.986493,-0.953141,-0.937995,-0.919144,-0.899809,-0.897231,-0.874673,-0.862428,-0.841643,-0.837293,-0.812157,-0.790244,-0.810707,-0.787183,-0.791856,-0.790244,-0.776066,-0.769943,-0.782349,-0.758825,-0.788472,-0.780416,-0.729984,-0.743357,-0.728856,-0.762209,-0.723056,-0.714677,-0.72225,-0.718867,-0.702915,-0.712905,-0.72934,-0.690831,-0.723217,-0.718061,-0.70066,-0.710005,-0.702915,-0.677135,-0.699371,-0.715805,-0.659251,-0.707749,-0.668274,-0.662151,-0.671174,-0.652322,-0.641205,-0.621709,-0.618809,-0.609302,-0.610913,-0.571116,-0.592706,-0.570471,-0.534702,-0.545497,-0.513756,-0.518751,-0.512628,-0.511661,-0.489587,-0.496354,-0.471058,-0.443667,-0.489265,-0.429004,-0.459779,-0.446245,-0.428843,-0.42836,-0.409992,-0.413053,-0.418531,-0.392268,-0.421754,-0.397263,-0.359077,-0.385984,-0.384373,-0.344253,-0.380989,-0.36536,-0.361171,-0.351665,-0.35956,-0.324435,-0.360043,-0.373739,-0.319923,-0.337003,-0.319279,-0.317184,-0.332491,-0.317345,-0.293177,-0.329913,-0.317023,-0.286087,-0.309934,-0.256602,-0.274164,-0.277548,-0.265786,-0.237911,-0.243712,-0.230822,-0.22921,-0.237428,-0.218737,-0.240328,-0.212776,-0.210681,-0.216482,-0.207298,-0.210681,-0.18764,-0.201981,-0.205847,-0.188124,-0.186029,-0.224055,-0.193602,-0.173784,-0.21197,-0.157994,-0.176523,-0.191991,-0.182807,-0.141881,-0.166211,-0.150582,-0.12448,-0.147521,-0.105306,-0.132375,-0.129313,-0.110623,-0.103534,-0.090483,-0.079687,-0.065508,-0.066475,-0.054068,-0.065831,-0.011532,-0.073081,-0.031511,-0.030544,-0.060997,-0.035861,-0.037473,-0.005409,-0.011371,-0.012982,-0.017654,-0.015721,0.028105,-0.003798,0.039545,0.020693,0.024882,0.039061,0.046634,0.066291,0.063552,0.062908,0.063875,0.098194,0.087238,0.11334,0.098839,0.102383,0.132191,0.139925,0.126713,0.139764,0.143309,0.11624,0.160066,0.146048,0.128324,0.162805,0.147015,0.136703,0.18504,0.15781,0.158293,0.189552,0.136381,0.146048,0.156521,0.157649,0.181979,0.143953,0.151526,0.134125,0.148304,0.127035,0.128485,0.104317,0.102706,0.17215,0.116885,0.105606,0.144437,0.096422,0.107862,0.123329,0.120429,0.115434,0.111245,0.110601,0.125746,0.120107,0.110601,0.114145,0.11044,0.126713,0.123168,0.126391,0.133641,0.148465,0.136381,0.114145,0.169733,0.120751,0.137186,0.147015,0.130419,0.133641,0.157166,0.111245,0.118496,0.14202,0.090621,0.12478,0.127519,0.126391,0.134125,0.132836,0.130902,0.121718,0.121235,0.121718,0.136219,0.097388,0.114468,0.101255,0.08466,0.103833,0.103511,0.072253,0.067258,0.103833,0.073703,0.09755,0.092071,0.054368,0.076281,0.05743,0.082243,0.067097,0.069514,0.05469,0.064358,0.065647,0.060169,0.041639,0.028105,0.047601,0.027299,0.006353,0.00732,0.009253,-0.008954,0.003131,-0.019104,-0.042951,-0.021682,-0.043595,-0.059708,-0.040856,-0.063736,-0.060513,-0.082749,-0.079848,-0.094511,-0.112718,-0.089032,-0.0987,-0.101761,-0.121418,-0.087099,-0.118035,-0.080332,-0.104823,-0.127058,-0.13028,-0.100956,-0.132858,-0.109012,-0.081298,-0.16895,-0.108851,-0.136081,-0.133825,-0.151549,-0.135436,-0.153482,-0.165244,-0.182323,-0.159927,-0.159927,-0.184901,-0.159605,-0.165405,-0.191346,-0.152032,-0.170239,-0.162666,-0.155416,-0.150904,-0.173623,-0.138659,-0.149454,-0.172978,-0.109334,-0.136886,-0.168628,-0.133019,-0.147521,-0.158155,-0.130602,-0.154449,-0.109495,-0.126413,-0.131247,-0.098539,-0.125124,-0.121902,-0.081621,-0.12158,-0.10305,-0.090321,-0.116101,-0.121257,-0.082749,-0.142365,-0.116907,-0.096122,-0.110784,-0.11449,-0.104661,-0.106595,-0.137209,-0.117713,-0.100472,-0.090966,-0.112395,-0.117551,-0.091127,-0.109173,-0.083393,-0.104017,-0.123835,-0.105306,-0.125285,-0.102728,-0.09161,-0.099828,-0.115618,-0.067925,-0.114007,-0.121741,-0.10015,-0.112073,-0.136403,-0.104661,-0.125447,-0.115135,-0.102245,-0.147843,-0.099344,-0.109173,-0.148004,-0.113201,-0.112073,-0.118035,-0.110301,-0.120452,-0.119163,-0.100794,-0.108206,-0.107239,-0.085004,-0.106112,-0.0987,-0.101761,-0.079204,-0.098055,-0.085327,-0.086132,-0.056485,-0.065992,-0.103534,-0.028933,-0.062286,-0.070181,-0.048429,-0.065025,-0.059224,-0.023938,-0.044884,-0.00412,-0.038278,-0.032639,-0.012015,-0.020393,-0.00702,-0.006215,-0.020877,0.002003,0.010059,0.004903,-0.012982,0.005386,-0.003475,-0.016204,0.00023,-0.044723,-0.011693,-0.02136,-0.023777,-0.039567,-0.026677,-0.045529,-0.043112,-0.043756,-0.047462,-0.012982,-0.055519,-0.022327,-0.040051,-0.048912,-0.013948,-0.002831,-0.046818,-0.02136,-0.014432,-0.034734,0.002164,0.01312,-0.026355,-0.004926,0.01167,0.006192,-0.003475,0.009576,0.016021,0.023432,0.002325,0.046151,0.038095,-0.001381,0.041962,0.03745,0.027783,0.03745,0.017149,0.021821,0.055174,0.034228,0.014409,0.062263,0.024399,0.011026,0.023593,0.015054,0.020049,0.052596,0.007481,0.006353,0.005709,-0.036184,0.014571,0.016021,-0.030222,-0.023777,-0.035378,-0.034089,-0.04714,-0.038439,-0.077915,-0.086293,-0.069375,-0.070986,-0.075659,-0.082265,-0.068409,-0.089194,-0.093222,-0.096283,-0.106273,-0.121096,-0.095155,-0.105145,-0.150582,-0.110462,-0.137209,-0.152999,-0.14607,-0.147682,-0.144459,-0.160088,-0.167339,-0.181679,-0.188768,-0.160249,-0.184096,-0.179584,-0.191507,-0.171367,-0.185546,-0.200853,-0.179423,-0.170239,-0.191669,-0.158799,-0.188124,-0.202786,-0.149454,-0.191991,-0.186351,-0.171045,-0.187157,-0.195374,-0.176845,-0.192152,-0.195858,-0.190702,-0.238233,-0.205042,-0.19618,-0.21342,-0.211165,-0.219382,-0.216159,-0.237589,-0.233561,-0.243067,-0.250318,-0.265947,-0.252412,-0.222282,-0.275775,-0.245806,-0.273359,-0.277709,-0.268041,-0.26788,-0.272875,-0.274486,-0.289149,-0.286087,-0.258535,-0.298333,-0.274003,-0.284637,-0.288826,-0.29221,-0.28222,-0.308161,-0.291404,-0.26933,-0.34667,-0.261758,-0.286893,-0.308484,-0.306228,-0.296077,-0.332491,-0.310739,-0.304133,-0.321857,-0.301555,-0.324918,-0.294788,-0.315573,-0.324596,-0.295433,-0.323307,-0.303166,-0.315251,-0.308645,-0.323468,-0.275775,-0.312995,-0.317829,-0.254668,-0.297527,-0.277387,-0.272392,-0.26498,-0.254024,-0.227599,-0.225666,-0.220349,-0.228083,-0.217448,-0.194247,-0.217932,-0.194569,-0.182001,-0.198275,-0.18619,-0.192958,-0.188929,-0.168628,-0.198919,-0.192635,-0.184257,-0.168628,-0.198436,-0.191024,-0.176201,-0.194247,-0.178295,-0.190541,-0.201336,-0.172978,-0.172495,-0.206975,-0.156705,-0.207459,-0.172173,-0.158477,-0.167017,-0.168144,-0.155093,-0.128347,-0.15606,-0.149293,-0.133986,-0.12448,-0.114168,-0.109334,-0.102889,-0.126252,-0.110945,-0.089677,-0.103372,-0.104339,-0.080009,-0.108528,-0.085488,-0.052618,-0.097089,-0.064058,-0.062125,-0.060352,-0.049074,-0.030705,-0.062608,-0.038762,-0.02426,-0.056324,-0.021038,-0.03989,-0.022166,-0.02281,-0.016204,-0.03425,-0.022005,-0.027966,-0.042306,-0.025711,-0.048429,-0.021682,-0.085488,-0.050685,-0.056324,-0.092094,-0.081782,-0.065186,-0.087099,-0.101761,-0.065669,-0.114007,-0.110784,-0.061964,-0.082587,-0.074209,-0.084843,-0.059063,-0.063736,-0.015076,-0.023294,0.014571,0.016021,0.025849,0.074025,0.042606,0.079343,0.085787,0.082082,0.109795,0.170539,0.164738,0.180529,0.200991,0.223549,0.278654,0.311201,0.323446,0.35986,0.394341,0.429144,0.456696,0.501328,0.52598,0.554499,0.585757,0.617016,0.653108,0.685977,0.727225,0.766056,0.802309,0.83824,0.866115,0.894151,0.928309,0.9499,0.971974,0.996627,1.014028,1.036586,1.054793,1.071067,1.085084,1.105547,1.112154,1.127783,1.147118,1.149696,1.159202,1.172898,1.178537,1.188205,1.188044,1.201578,1.21463,1.21608,1.213824,1.234609,1.225264,1.24186,1.251205,1.245405,1.238154,1.228809,1.208185,1.189655,1.166775,1.109253,1.07445,1.061238,0.9441,0.89979,0.814072,0.739632,0.67921,0.609443,0.520663,0.455246,0.36131,0.303467,0.230638,0.103995,0.099805,-0.028933,-0.063414,-0.128669,-0.223571,-0.251929,-0.297849,-0.382762,-0.422237,-0.450273,-0.513111,-0.554198,-0.552748,-0.620098,-0.629765,-0.655867,-0.684386,-0.700015,-0.713227,-0.733207,-0.744163,-0.765915,-0.773971,-0.781705,-0.810224,-0.823919,-0.832942,-0.835359,-0.838259,-0.840032,-0.844221,-0.814574,-0.785089,-0.762531,-0.671979,-0.641527,-0.592868,-0.539536,-0.46703,-0.4427,-0.39678,-0.346348,-0.295433,-0.253862,-0.221154,-0.164922,-0.12158,-0.086777,-0.042306,-0.049235,0.00023,0.007642,0.029072,0.060008,0.052435,0.062908,0.091427,0.109956,0.092716,0.140086,0.117851,0.135253,0.140731,0.121557,0.126552,0.151043,0.131386,0.136381,0.150398,0.097388,0.108828,0.137186,0.131708,0.108184,0.132997,0.133964,0.112534,0.107862,0.087238,0.119946,0.107056,0.109312,0.112373,0.08047,0.099483,0.082565,0.081115,0.108184,0.082082,0.050501,0.063391,0.068869,0.033261,0.06178,0.032939,0.03745,0.04599,0.033744,0.014893,0.012637,0.021177,0.012154,0.031811,-0.011209,0.010704,-0.015399,-0.005087,-0.005731,-0.032639,-0.043756,-0.020555,-0.056324,-0.062769,-0.034411,-0.066636,-0.084843,-0.049235,-0.074531,-0.094672,-0.066636,-0.073081,-0.0987,-0.110623,-0.118035,-0.109495,-0.117713,-0.135758,-0.106273,-0.147682,-0.140592,-0.128669,-0.159444,-0.175717,-0.186996,-0.182001,-0.187318,-0.21761,-0.253379,-0.213259,-0.215676,-0.223732,-0.202947,-0.217932,-0.256763,-0.224216,-0.22196,-0.288665,-0.236461,-0.277548,-0.294949,-0.269492,-0.316862,-0.296883,-0.280448,-0.312834,-0.307356,-0.3022,-0.342964,-0.313156,-0.33233,-0.327174,-0.348765,-0.352632,-0.357143,-0.379056,-0.40113,-0.37825,-0.372289,-0.399841,-0.407736,-0.412248,-0.427715,-0.423848,-0.42836,-0.418048,-0.437705,-0.435772,-0.460424,-0.459135,-0.440928,-0.46139,-0.440122,-0.461874,-0.454462,-0.484914,-0.473636,-0.484109,-0.489265,-0.487654,-0.498288,-0.494421,-0.506988,-0.511178,-0.514561,-0.497966,-0.53019,-0.520523,-0.511178,-0.506183,-0.541791,-0.520201,-0.499899,-0.558226,-0.498127,-0.535669,-0.553231,-0.527935,-0.55017,-0.549364,-0.525518,-0.556937,-0.552103,-0.547753,-0.565154,-0.544047,-0.533091,-0.549525,-0.540663,-0.555809,-0.557581,-0.547269,-0.533574,-0.574499,-0.56451,-0.539697,-0.585134,-0.550814,-0.576111,-0.551459,-0.561448,-0.561126,-0.552264,-0.555809,-0.594157,-0.556776,-0.576111,-0.582556,-0.544369,-0.576755,-0.585778,-0.5803,-0.584489,-0.582556,-0.592545,-0.578366,-0.609141,-0.579817,-0.599313,-0.596735,-0.574016,-0.599474,-0.591256,-0.614619,-0.59174,-0.588517,-0.595123,-0.624931,-0.5861,-0.604952,-0.638466,-0.596573,-0.630893,-0.607369,-0.627993,-0.629282,-0.632182,-0.62912,-0.624609,-0.634438,-0.622031,-0.637499,-0.615264,-0.620259,-0.623803,-0.625737,-0.627187,-0.61897,-0.622514,-0.624609,-0.619131,-0.623159,-0.633471,-0.620259,-0.609141,-0.646844,-0.617358,-0.627348,-0.624287,-0.633149,-0.634276,-0.643461,-0.612364,-0.631054,-0.653289,-0.635727,-0.640077,-0.642655,-0.656995,-0.641688,-0.650067,-0.635565,-0.652806,-0.633954,-0.612364,-0.659251,-0.632182,-0.649422,-0.658284,-0.648616,-0.657156,-0.659573,-0.645877,-0.660379,-0.664084,-0.67488,-0.666179,-0.655867,-0.662957,-0.665857,-0.667629,-0.672946,-0.666985,-0.666662,-0.660056,-0.685353,-0.654739,-0.675685,-0.696631,-0.64475,-0.696631,-0.673752,-0.675041,-0.698726,-0.699048,-0.683419,-0.701949,-0.708716,-0.702593,-0.706621,-0.681647,-0.707266,-0.69212,-0.682614,-0.68922,-0.678747,-0.642494,-0.677458,-0.63766,-0.605919,-0.629926,-0.607208,-0.595768,-0.616714,-0.588356,-0.59899,-0.578689,-0.570632,-0.58175,-0.567249,-0.554681,-0.560482,-0.564671,-0.548881,-0.563865,-0.53728,-0.545658,-0.535991,-0.537924,-0.540341,-0.525195,-0.508922,-0.515206,-0.556454,-0.500221,-0.52439,-0.538569,-0.517462,-0.526807,-0.55452,-0.523262,-0.530996,-0.547108,-0.554842,-0.524068,-0.528418,-0.515367,-0.527935,-0.514239,-0.509889,-0.494421,-0.49281,-0.453173,-0.455429,-0.440928,-0.443506,-0.461229,-0.415631,-0.426265,-0.385018,-0.365038,-0.407253,-0.372289,-0.361977,-0.366488,-0.334586,-0.308,-0.36536,-0.309934,-0.307033,-0.299138,-0.290921,-0.279159,-0.267558,-0.277064,-0.241295,-0.25918,-0.259824,-0.242423,-0.225344,-0.231466,-0.238717,-0.201336,-0.242584,-0.239684,-0.185707,-0.219865,-0.224055,-0.202464,-0.228244,-0.231305,-0.233722,-0.249673,-0.230016,-0.260469,-0.277548,-0.280448,-0.305744,-0.322018,-0.315895,-0.31944,-0.355693,-0.347959,-0.379862,-0.386307,-0.381473,-0.407575,-0.435611,-0.393879,-0.425782,-0.451401,-0.417726,-0.464291,-0.419176,-0.463485,-0.448017,-0.460746,-0.472347,-0.435772,-0.455751,-0.465741,-0.444795,-0.444795,-0.447856,-0.440122,-0.438833,-0.451884,-0.436738,-0.451884,-0.438994,-0.451884,-0.455751,-0.479436,-0.43835,-0.4427,-0.48717,-0.438994,-0.469447,-0.480564,-0.47283,-0.498449,-0.503927,-0.511983,-0.52874,-0.514239,-0.539536,-0.560804,-0.571438,-0.601891,-0.590451,-0.602052,-0.622514,-0.627348,-0.62042,-0.632826,-0.650067,-0.60898,-0.634599,-0.620903,-0.570471,-0.603663,-0.577883,-0.540341,-0.539052,-0.536958,-0.521167,-0.480081,-0.462679,-0.45269,-0.476214,-0.45124,-0.467835,-0.433838,-0.461874,-0.467352,-0.484109,-0.496677,-0.516011,-0.518751,-0.535346,-0.596735,-0.573694,-0.589806,-0.600118,-0.586423,-0.610752,-0.604469,-0.597862,-0.610269,-0.601568,-0.566927,-0.594801,-0.561932,-0.547753,-0.57321,-0.529224,-0.536313,-0.539536,-0.549686,-0.531802,-0.519717,-0.524551,-0.513917,-0.542758,-0.512144,-0.508761,-0.516011,-0.500544,-0.494904,-0.486848,-0.462357,-0.452045,-0.44125,-0.420465,-0.447373,-0.394685,-0.428038,-0.404997,-0.384856,-0.395813,-0.373255,-0.382923,-0.391463,-0.370677,-0.365522,-0.395329,-0.374706,-0.336841,-0.389529,-0.368744,-0.342642,-0.353115,-0.357465,-0.359882,-0.375672,-0.371322,-0.358593,-0.387918,-0.384373,-0.375833,-0.378411,-0.398874,-0.385662,-0.399358,-0.40258,-0.421109,-0.407253,-0.419659,-0.4398,-0.400969,-0.462679,-0.464291,-0.456879,-0.471058,-0.477019,-0.475408,-0.507311,-0.510211,-0.513917,-0.538247,-0.525034,-0.536635,-0.586745,-0.548558,-0.587712,-0.601568,-0.610269,-0.597218,-0.629926,-0.645394,-0.629282,-0.676008,-0.656995,-0.685514,-0.690509,-0.69647,-0.705171,-0.716127,-0.728534,-0.738524,-0.759792,-0.757214,-0.772843,-0.762692
 18:35:47.23754,-0.782994,-0.782511,-0.784605,-0.790083,-0.789922,-0.794111,-0.796851,-0.786539,-0.803618,-0.807968,-0.801362,-0.810546,-0.816991,-0.807163,-0.815863,-0.826497,-0.83407,-0.837615,-0.84841,-0.855339,-0.862428,-0.867745,-0.878702,-0.890786,-0.890302,-0.904159,-0.909154,-0.909798,-0.925589,-0.942829,-0.942507,-0.95153,-0.972959,-0.953785,-0.973926,-0.970059,-0.980854,-0.979082,-0.969737,-0.972959,-0.959264,-0.965225,-0.969575,-0.973281,-0.973281,-0.966514,-0.98601,-0.972798,-0.980854,-0.984721,-0.983593,-0.990038,-0.995033,-0.983593,-0.99036,-0.989555,-0.992133,-1.002606,-0.997128,-1.012757,-1.017107,-1.029191,-1.031286,-1.040953,-1.052554,-1.063994,-1.062866,-1.058033,-1.0706,-1.075434,-1.080268,-1.091224,-1.090741,-1.082201,-1.093319,-1.079945,-1.080429,-1.098314,-1.090418,-1.096058,-1.093963,-1.091546,-1.09493,-1.101214,-1.111848,-1.123288,-1.131183,-1.129088,-1.127316,-1.120549,-1.124254,-1.130377,-1.121354,-1.123932,-1.120226,-1.117004,-1.112492,-1.121515,-1.11217,-1.12071,-1.135372,-1.128444,-1.120549,-1.11362,-1.126027,-1.127316,-1.122482,-1.137467,-1.138111,-1.132472,-1.118293,-1.143106,-1.141334,-1.162119,-1.162602,-1.158413,-1.139078,-1.14649,-1.130699,-1.136983,-1.144395,-1.133761,-1.147779,-1.150679,-1.14939,-1.164858,-1.148101,-1.151646,-1.156479,-1.149873,-1.165341,-1.152451,-1.150034,-1.157929,-1.170175,-1.18387,-1.187737,-1.173558,-1.174203,-1.164697,-1.166469,-1.149068,-1.176459,-1.165663,-1.169208,-1.202238,-1.175814,-1.184193,-1.185804,-1.181615,-1.176136,-1.174203,-1.169047,-1.171464,-1.159057,-1.172108,-1.181131,-1.15938,-1.182259,-1.170336,-1.158896,-1.179198,-1.175653,-1.187737,-1.199822,-1.199822,-1.194505,-1.211423,-1.197888,-1.19676,-1.209972,-1.196116,-1.204978,-1.201755,-1.187737,-1.191927,-1.19821,-1.189993,-1.19676,-1.20965,-1.187898,-1.196438,-1.186771,-1.205622,-1.199822,-1.191765,-1.174364,-1.162119,-1.172269,-1.180487,-1.191927,-1.15519,-1.167436,-1.158413,-1.1423,-1.140528,-1.121032,-1.080912,-1.075273,-1.034831,-0.989716,-0.957975,-0.88998,-0.841965,-0.791533,-0.726923,-0.671496,-0.593673,-0.540663,-0.489748,-0.399358,-0.338453,-0.289149,-0.207298,-0.127219,-0.083071,-0.005248,0.05743,0.112051,0.16216,0.222904,0.289288,0.369528,0.413354,0.424632,0.483604,0.503584,0.531458,0.554177,0.567067,0.578829,0.590269,0.599292,0.59897,0.60187,0.615565,0.601709,0.592363,0.588013,0.559655,0.534842,0.516635,0.489082,0.466686,0.40143,0.350032,0.297344,0.244173,0.199702,0.125263,0.075476,-0.016688,-0.095316,-0.146393,-0.220993,-0.316862,-0.377445,-0.450112,-0.5803,-0.629604,-0.7237,-0.826336,-0.88128,-0.977632,-1.060772,-1.104114,-1.125221,-1.147779,-1.17098,-1.156318,-1.138756,-1.179681,-1.165986,-1.142623,-1.189671,-1.164535,-1.141656,-1.19241,-1.174847,-1.157929,-1.187898,-1.166147,-1.180648,-1.197566,-1.164535,-1.184998,-1.202883,-1.184193,-1.164535,-1.210939,-1.198372,-1.17662,-1.194666,-1.17662,-1.203044,-1.21255,-1.198049,-1.200144,-1.188865,-1.177425,-1.188221,-1.187415,-1.204172,-1.223829,-1.21529,-1.224635,-1.215128,-1.205139,-1.216417,-1.205139,-1.204333,-1.194988,-1.206589,-1.202561,-1.188382,-1.219801,-1.192088,-1.206105,-1.20675,-1.210295,-1.211584,-1.22109,-1.22254,-1.226085,-1.214162,-1.197888,-1.210456,-1.17952,-1.217223,-1.21255,-1.215773,-1.218834,-1.204172,-1.200144,-1.213839,-1.210295,-1.212712,-1.200627,-1.197727,-1.206428,-1.217545,-1.194505,-1.189832,-1.213678,-1.194505,-1.19821,-1.199661,-1.189993,-1.208039,-1.197244,-1.186771,-1.220445,-1.180487,-1.199661,-1.205622,-1.200627,-1.187093,-1.201916,-1.193216,-1.188382,-1.216095,-1.179842,-1.188382,-1.192088,-1.194505,-1.188865,-1.184193,-1.182581,-1.166147,-1.180487,-1.169208,-1.170658,-1.150518,-1.153096,-1.146651,-1.134083,-1.1394,-1.10492,-1.120388,-1.104436,-1.092835,-1.088485,-1.079301,-1.101214,-1.051426,-1.067378,-1.067055,-1.039987,-1.054327,-1.04482,-1.022263,-1.042081,-1.023874,-1.028063,-1.027741,-1.006634,-1.017107,-1.020813,-1.02033,-1.01614,-1.017752,-1.035475,-1.01469,-1.020491,-1.006473,-1.019685,-0.996,-0.987782,-1.024519,-1.0047,-0.979887,-0.989394,-0.978437,-0.957169,-0.978921,-0.9272,-0.941701,-0.968931,-0.898359,-0.936545,-0.922366,-0.908187,-0.908832,-0.903515,-0.903031,-0.90142,-0.889175,-0.893686,-0.885147,-0.864362,-0.889013,-0.880313,-0.871934,-0.855016,-0.852761,-0.849699,-0.856305,-0.856628,-0.81828,-0.851955,-0.816024,-0.817636,-0.835198,-0.808935,-0.81248,-0.795562,-0.782511,-0.784927,-0.782833,-0.782188,-0.777516,-0.750447,-0.744646,-0.75802,-0.713066,-0.713549,-0.719994,-0.716127,-0.666179,-0.694698,-0.653611,-0.654095,-0.680197,-0.600763,-0.644588,-0.632987,-0.602213,-0.601568,-0.607046,-0.562576,-0.569988,-0.569988,-0.527935,-0.544691,-0.540986,-0.50715,-0.517623,-0.497643,-0.529546,-0.506344,-0.520201,-0.533896,-0.547108,-0.529062,-0.549847,-0.580944,-0.556131,-0.639594,-0.606563,-0.633632,-0.68358,-0.685192,-0.697115,-0.748836,-0.76527,-0.771071,-0.823597,-0.810385,-0.855016,-0.87709,-0.886274,-0.894331,-0.906576,-0.883052,-0.902065,-0.92865,-0.904965,-0.926716,-0.899648,-0.894492,-0.907865,-0.910926,-0.893203,-0.895458,-0.889013,-0.885147,-0.896909,-0.874996,-0.870323,-0.874029,-0.849377,-0.876768,-0.840837,-0.854211,-0.836004,-0.836326,-0.807807,-0.829398,-0.817797,-0.782349,-0.853727,-0.799912,-0.797978,-0.803618,-0.786861,-0.794917,-0.796045,-0.773971,-0.788311,-0.766398,-0.752219,-0.797334,-0.763981,-0.769782,-0.779127,-0.761887,-0.777193,-0.788472,-0.788633,-0.771554,-0.815219,-0.805551,-0.776549,-0.828592,-0.800073,-0.82972,-0.820214,-0.84116,-0.825208,-0.828431,-0.829075,-0.844382,-0.804746,-0.822953,-0.835198,-0.794111,-0.836165,-0.798945,-0.771232,-0.812963,-0.796367,-0.77671,-0.765593,-0.774454,-0.739168,-0.759309,-0.761403,-0.706299,-0.750608,-0.730467,-0.709199,-0.698082,-0.709038,-0.707427,-0.704688,-0.671335,-0.668757,-0.679552,-0.634438,-0.691314,-0.642816,-0.632182,-0.655545,-0.630409,-0.63476,-0.651839,-0.608174,-0.609947,-0.647811,-0.584167,-0.605435,-0.616392,-0.59319,-0.593029,-0.606402,-0.567893,-0.581428,-0.589323,-0.548236,-0.592384,-0.582717,-0.521006,-0.551136,-0.521973,-0.529224,-0.516334,-0.519717,-0.526162,-0.497804,-0.485237,-0.498932,-0.492648,-0.439639,-0.495388,-0.454301,-0.438672,-0.433677,-0.426426,-0.413698,-0.412409,-0.393074,-0.373417,-0.400485,-0.342803,-0.359399,-0.351181,-0.320729,-0.318312,-0.331041,-0.329752,-0.293982,-0.297527,-0.299461,-0.29076,-0.282543,-0.291566,-0.274486,-0.255635,-0.264819,-0.244678,-0.268847,-0.25499,-0.280931,-0.281737,-0.290921,-0.288182,-0.248868,-0.289471,-0.299783,-0.275453,-0.287376,-0.286893,-0.275131,-0.266914,-0.26498,-0.254185,-0.270619,-0.235655,-0.269169,-0.232916,-0.225827,-0.245484,-0.219704,-0.230338,-0.252735,-0.225344,-0.228566,-0.247095,-0.208748,-0.223732,-0.247579,-0.213743,-0.222604,-0.23485,-0.203592,-0.208264,-0.252735,-0.22341,-0.221315,-0.226471,-0.211165,-0.224538,-0.195697,-0.211326,-0.213098,-0.203592,-0.219543,-0.19618,-0.185062,-0.174912,-0.212292,-0.181034,-0.203914,-0.215354,-0.173945,-0.197308,-0.21197,-0.172173,-0.209714,-0.201658,-0.184579,-0.214709,-0.200208,-0.188124,-0.191346,-0.182807,-0.196019,-0.212937,-0.202947,-0.214709,-0.197791,-0.198758,-0.216643,-0.222121,-0.190057,-0.226149,-0.218254,-0.194569,-0.223088,-0.223088,-0.191991,-0.245001,-0.229533,-0.207459,-0.27932,-0.2334,-0.237911,-0.261435,-0.245806,-0.278353,-0.261758,-0.255313,-0.281737,-0.288826,-0.245484,-0.258696,-0.283993,-0.291404,-0.281092,-0.284637,-0.30075,-0.302522,-0.290438,-0.296238,-0.32379,-0.28367,-0.303811,-0.329269,-0.285282,-0.301716,-0.306389,-0.295594,-0.294144,-0.271103,-0.286732,-0.30655,-0.25499,-0.255151,-0.307517,-0.232594,-0.24065,-0.236461,-0.226955,-0.209553,-0.230983,-0.200208,-0.184418,-0.208103,-0.152354,-0.179745,-0.18764,-0.164116,-0.172495,-0.146876,-0.153643,-0.161699,-0.144459,-0.149615,-0.178134,-0.149293,-0.136725,-0.181357,-0.145587,-0.168789,-0.161216,-0.196019,-0.162988,-0.190863,-0.18619,-0.189896,-0.193441,-0.1646,-0.223088,-0.215998,-0.22921,-0.214065,-0.207136,-0.220832,-0.211487,-0.227599,-0.243551,-0.226471,-0.204558,-0.241456,-0.24065,-0.230983,-0.249996,-0.21197,-0.216965,-0.223571,-0.235172,-0.223571,-0.222282,-0.205042,-0.202625,-0.236944,-0.173623,-0.201175,-0.20053,-0.187479,-0.203108,-0.184418,-0.170078,-0.203108,-0.17894,-0.174589,-0.219543,-0.184418,-0.191669,-0.189413,-0.19328,-0.154771,-0.172011,-0.157349,-0.172817,-0.171045,-0.149776,-0.146232,-0.139625,-0.129152,-0.156866,-0.119646,-0.140592,-0.124641,-0.111912,-0.129313,-0.128186,-0.1045,-0.142526,-0.133664,-0.105628,-0.138498,-0.106112,-0.097411,-0.136242,-0.147198,-0.120452,-0.129313,-0.124319,-0.078882,-0.155738,-0.108206,-0.147521,-0.140431,-0.132053,-0.150904,-0.156382,-0.139948,-0.168467,-0.169917,-0.1675,-0.19038,-0.146232,-0.176362,-0.219221,-0.177329,-0.204075,-0.21052,-0.184579,-0.18329,-0.211809,-0.208748,-0.189735,-0.236139,-0.183129,-0.214709,-0.215676,-0.197147,-0.197308,-0.207781,-0.205847,-0.219382,-0.191024,-0.210681,-0.198275,-0.183935,-0.220993,-0.206975,-0.201658,-0.221315,-0.194891,-0.235494,-0.241295,-0.26353,-0.246934,-0.272875,-0.258857,-0.256279,-0.284154,-0.287537,-0.296722,-0.309289,-0.303972,-0.289149,-0.33088,-0.313801,-0.309611,-0.353759,-0.324757,-0.344414,-0.338775,-0.35811,-0.34522,-0.351987,-0.373739,-0.357465,-0.354243,-0.36246,-0.376961,-0.344898,-0.369066,-0.346187,-0.341675,-0.349409,-0.354082,-0.324274,-0.358271,-0.325885,-0.333458,-0.341675,-0.321696,-0.332008,-0.332008,-0.27642,-0.323146,-0.33813,-0.291727,-0.33813,-0.313478,-0.283026,-0.315251,-0.357304,-0.28931,-0.304133,-0.334263,-0.322824,-0.323468,-0.314606,-0.287699,-0.300266,-0.291404,-0.264497,-0.315734,-0.278837,-0.300589,-0.296883,-0.310578,-0.290921,-0.298333,-0.305744,-0.316862,-0.279159,-0.285282,-0.332974,-0.286087,-0.308645,-0.304455,-0.308484,-0.308645,-0.312512,-0.313962,-0.293177,-0.327496,-0.295594,-0.331524,-0.319923,-0.332974,-0.320568,-0.307517,-0.332652,-0.340386,-0.30365,-0.333619,-0.351504,-0.323307,-0.321857,-0.324435,-0.288665,-0.34667,-0.330396,-0.323629,-0.311545,-0.317668,-0.306711,-0.314123,-0.315251,-0.312351,-0.335069,-0.329913,-0.333941,-0.35521,-0.356337,-0.373255,-0.355048,-0.366005,-0.387434,-0.366972,-0.370677,-0.399519,-0.389046,-0.369711,-0.404675,-0.375672,-0.414987,-0.411925,-0.397907,-0.394685,-0.412731,-0.37535,-0.39259,-0.430777,-0.3681,-0.421109,-0.403547,-0.393235,-0.39823,-0.422398,-0.397907,-0.42546,-0.407897,-0.39968,-0.424332,-0.40113,-0.428038,-0.438511,-0.431905,-0.434966,-0.445761,-0.465418,-0.453656,-0.449628,-0.486203,-0.515528,-0.484914,-0.496677,-0.520362,-0.518106,-0.513111,-0.532446,-0.52439,-0.518106,-0.519556,-0.514239,-0.532124,-0.516978,-0.496515,-0.528257,-0.481531,-0.458651,-0.474764,-0.458812,-0.410797,-0.415792,-0.398069,-0.374544,-0.390657,-0.339581,-0.330235,-0.313801,-0.298816,-0.267558,-0.254829,-0.226955,-0.18764,-0.158316,-0.136242,-0.100311,-0.051813,-0.041823,0.007964,0.089654,0.097227,0.148626,0.233055,0.253679,0.314584,0.385963,0.408681,0.457019,0.499878,0.527913,0.561427,0.597842,0.629583,0.66777,0.706279,0.740921,0.782008,0.818744,0.847908,0.881905,0.907363,0.933949,0.959729,0.982125,1.005005,1.029818,1.043192,1.060755,1.077028,1.078801,1.099264,1.094108,1.103936,1.102325,1.093785,1.086696,1.071067,1.054471,1.040936,1.027563,0.987604,0.924603,0.900435,0.845491,0.791192,0.753488,0.690489,0.611698,0.55611,0.459274,0.403686,0.331986,0.262702,0.194708,0.077892,0.046795,-0.082587,-0.149937,-0.222604,-0.289954,-0.393235,-0.438188,-0.513433,-0.600924,-0.633632,-0.695987,-0.761081,-0.793306,-0.825208,-0.870162,-0.899809,-0.9243,-0.917855,-0.944118,-0.966192,-0.973765,-0.983593,-0.982143,-0.972315,-1.011307,-1.000995,-0.995678,-0.983916,-0.959264,-0.892397,-0.80394,-0.759792,-0.649905,-0.58755,-0.510533,-0.442861,-0.350376,-0.298011,-0.215998,-0.171528,-0.107884,-0.040373,-0.025711,0.063552,0.048084,0.08901,0.138153,0.139925,0.161677,0.194224,0.189552,0.198575,0.207598,0.206309,0.168122,0.202925,0.197447,0.196319,0.171183,0.190518,0.168767,0.159744,0.146209,0.163127,0.155071,0.13912,0.135092,0.098677,0.109956,0.110117,0.111729,0.075476,0.092071,0.069192,0.080632,0.078376,0.055818,0.06323,0.036806,0.060652,0.046312,0.039867,0.031489,0.032294,0.024238,0.034872,0.02021,-0.025872,0.013443,0.019565,-0.018782,0.012637,-0.006053,-0.010887,-0.01556,-0.013465,-0.027644,-0.027,-0.043273,-0.065992,-0.039245,-0.082265,-0.0958,-0.069536,-0.106273,-0.11884,-0.092094,-0.145909,-0.158799,-0.13028,-0.179101,-0.140109,-0.169595,-0.197952,-0.199564,-0.208264,-0.189091,-0.206814,-0.222282,-0.226471,-0.240811,-0.268041,-0.223893,-0.250157,-0.274486,-0.246612,-0.255957,-0.278837,-0.292693,-0.274809,-0.299783,-0.287376,-0.278192,-0.313156,-0.281898,-0.288021,-0.283993,-0.281415,-0.287054,-0.29656,-0.291404,-0.298494,-0.303811,-0.27932,-0.301555,-0.269653,-0.322179,-0.299622,-0.303328,-0.320407,-0.306067,-0.302361,-0.312834,-0.335391,-0.312834,-0.354887,-0.352148,-0.324113,-0.352954,-0.342964,-0.368744,-0.394202,-0.351665,-0.377284,-0.408219,-0.380184,-0.387596,-0.421432,-0.387596,-0.41692,-0.404191,-0.422398,-0.426749,-0.416114,-0.433355,-0.440605,-0.419176,-0.432227,-0.468158,-0.416759,-0.462035,-0.450595,-0.45559,-0.45414,-0.457523,-0.462357,-0.467513,-0.477181,-0.475408,-0.490876,-0.472025,-0.462518,-0.484753,-0.477664,-0.515045,-0.498127,-0.499255,-0.496677,-0.501349,-0.506988,-0.519556,-0.509566,-0.493937,-0.525195,-0.519234,-0.514239,-0.54453,-0.513917,-0.517945,-0.557581,-0.521167,-0.53728,-0.595123,-0.520684,-0.552425,-0.569021,-0.569182,-0.55597,-0.58465,-0.570955,-0.589001,-0.578044,-0.597057,-0.594479,-0.572888,-0.594801,-0.599957,-0.589484,-0.603663,-0.605435,-0.598507,-0.577561,-0.609302,-0.576272,-0.579494,-0.589001,-0.556454,-0.577077,-0.560965,-0.592868,-0.575466,-0.559032,-0.580461,-0.589967,-0.560804,-0.580139,-0.602696,-0.574822,-0.614619,-0.5803,-0.587712,-0.599151,-0.619292,-0.601246,-0.612847,-0.62042,-0.607046,-0.629926,-0.63331,-0.63621,-0.640238,-0.628315,-0.642655,-0.625092,-0.63186,-0.645233,-0.643461,-0.637499,-0.654256,-0.636854,-0.629443,-0.647005,-0.626865,-0.654095,-0.645394,-0.635565,-0.625254,-0.645072,-0.643138,-0.635565,-0.662473,-0.634276,-0.66779,-0.653772,-0.666501,-0.653289,-0.665696,-0.662795,-0.678908,-0.671979,-0.669724,-0.69502,-0.670207,-0.711938,-0.70791,-0.689381,-0.721606,-0.715161,-0.703882,-0.73079,-0.731273,-0.726762,-0.743035,-0.746258,-0.736912,-0.765915,-0.74948,-0.746902,-0.766237,-0.762531,-0.762531,-0.758664,-0.768976,-0.747547,-0.787022,-0.762853,-0.767687,-0.764142,-0.770104,-0.788794,-0.79105,-0.784605,-0.774777,-0.791372,-0.785572,-0.807807,-0.799106,-0.807646,-0.810224,-0.793467,-0.797012,-0.816669,-0.807001,-0.807807,-0.826175,-0.804585,-0.809257,-0.818925,-0.814896,-0.840515,-0.822308,-0.835681,-0.839871,-0.83262,-0.843577,-0.845832,-0.832298,-0.848894,-0.8555,-0.842771,-0.856144,-0.856628,-0.852438,-0.85131,-0.85695,-0.860495,-0.866456,-0.863556,-0.860172,-0.870806,-0.8613,-0.878702,-0.877574,-0.880152,-0.885952,-0.881118,-0.882569,-0.887886,-0.877896,-0.894814,-0.902387,-0.878379,-0.889658,-0.894008,-0.887886,-0.900131,-0.910926,-0.91141,-0.907543,-0.909476,-0.908832,-0.903998,-0.898359,-0.909637,-0.918983,-0.902226,-0.90722,-0.915599,-0.913021,-0.910121,-0.927039,-0.923977,-0.91866,-0.936223,-0.923172,-0.936223,-0.937834,-0.941057,-0.941379,-0.94299,-0.945246,-0.947985,-0.948468,-0.956847,-0.966836,-0.955235,-0.957975,-0.959264,-0.951207,-0.962325,-0.973604,-0.965386,-0.964742,-0.983271,-0.975054,-0.983916,-0.986493,-0.98891,-0.99745,-0.991811,-1.002767,-0.997611,-0.993905,-1.000511,-1.009695,-1.000189,-1.005023,-1.010501,-1.003734,-1.015818,-1.007762,-1.0018,-1.01034,-1.008245,-0.994066,-1.010018,-1.009856,-0.992938,-1.017429,-0.988105,-1.001478,-1.009373,-1.003412,-1.005184,-1.011145,-1.019041,-1.026774,-1.022263,-1.041598,-1.044659,-1.047721,-1.059322,-1.060449,-1.057549,-1.065605,-1.056905,-1.065928,-1.067861,-1.067378,-1.052877,-1.061577,-1.073339,-1.050137,-1.061094,-1.059322,-1.053199,-1.053038,-1.052715,-1.044498,-1.044981,-1.025808,-1.037409,-1.059966,-1.048526,-1.066733,-1.059966,-1.0706,-1.074467,-1.070278,-1.056421,-1.065444,-1.068344,-1.049976,-1.057066,-1.035153,-1.029997,-1.050943,-1.048043,-1.044015,-1.062383,-1.079784,-1.083168,-1.09203,-1.088163,-1.102503,-1.10782,-1.109592,-1.118937,-1.115393,-1.131344,-1.116359,-1.12071,-1.119743,-1.114587,-1.104597,-1.10637,-1.097508,-1.079462,-1.088324,-1.069472,-1.058677,-1.048365,-1.052393,-1.015657,-1.035475,-1.000511,-0.982627,-1.024358,-0.96168,-0.978598,-0.985043,-0.977954,-0.955719,-0.968931,-0.961842,-0.961036,-0.972153,-0.981176,-0.965547,-0.956041,-0.938962,-0.918499,-0.902226,-0.917694,-0.886274,-0.902226,-0.875318,-0.870645,-0.851633,-0.861139,-0.83407,-0.815863,-0.855983,-0.7925,-0.814413,-0.794756,-0.758503,-0.773971,-0.775904,-0.741907,-0.743035,-0.772199,-0.712099,-0.730951,-0.723861,-0.741585,-0.721445,-0.728534,-0.723217,-0.736429,-0.746419,-0.745613,-0.746902,-0.715483,-0.7208,-0.718867,-0.728212,-0.75093,-0.72225,-0.731273,-0.765593,-0.748191,-0.726762,-0.747063,-0.755119,-0.751575,-0.767848,-0.768009,-0.769621,-0.77381,-0.784122,-0.776066,-0.788633,-0.790567,-0.796528,-0.82118,-0.798623,-0.845671,-0.831009,-0.844543,-0.867745,-0.865328,-0.842126,-0.873384,-0.87274,-0.892075,-0.929294,-0.865006,-0.908671,-0.913827,-0.90287,-0.918983,-0.944118,-0.944279,-0.929294,-0.97602,-0.948629,-0.952174,-0.975054,-0.973281,-0.985688,-0.984077,-0.979887,-0.993744,-0.974409,-0.978115,-0.987782,-0.962325,-0.972315,-0.96877,-0.950079,-0.978276,-0.944924,-0.954752,-0.950885,-0.954913,-0.959425,-0.962486,-0.960875,-0.963614,-0.989394,-0.966675,-0.984077,-1.001961,-1.005989,-1.028708,-1.021457,-1.02468,-1.044337,-1.05771,-1.061094,-1.081557,-1.080912,-1.083812,-1.088163,-1.083973,-1.084135,-1.091063,-1.098152,-1.088968,-1.09348,-1.095091,-1.086713,-1.117004,-1.117648,-1.116198,-1.11781,-1.130055,-1.12796,-1.127316,-1.11781,-1.123449,-1.129894,-1.137306,-1.152612,-1.157607,-1.155996,-1.158413,-1.147617,-1.160668,-1.142784,-1.137628,-1.145845,-1.151807,-1.155835,-1.166469,-1.170336,-1.161474,-1.16228,-1.162602,-1.161957,-1.157607,-1.160346,-1.163085,-1.173558,-1.142784,-1.151323,-1.173881,-1.146167,-1.166147,-1.175653,-1.161474,-1.157768,-1.164697,-1.174203,-1.169208,-1.172592,-1.17372,-1.176942,-1.177103,-1.180165,-1.178714,-1.18242,-1.188382,-1.19096,-1.181453,-1.185965,-1.197083,-1.184193,-1.198533,-1.206105,-1.200627,-1.204172,-1.193538,-1.194988,-1.18806,-1.183226,-1.18532,-1.181937,-1.177425,-1.185643,-1.202561,-1.18806,-1.213034,-1.202561,-1.197727,-1.197244,-1.198372,-1.190638,-1.195471,-1.22109,-1.209328,-1.207717,-1.195149,-1.179359,-1.21529,-1.2024,-1.209489,-1.204494,-1.201111,-1.18242,-1.2053,-1.20675,-1.225763,-1.2082,-1.181131,-1.201594,-1.217868,-1.222862,-1.19676,-1.204655,-1.209167,-1.214645,-1.203527,-1.190315,-1.221573,-1.19821,-1.214323,-1.212389,-1.206105,-1.224796,-1.194505,-1.202561,-1.219801,-1.207072,-1.200788,-1.216095,-1.218673,-1.204494,-1.207233,-1.222701,-1.199177,-1.208683,-1.23543,-1.199822,-1.209006,-1.20965,-1.222057,-1.215612,-1.206911,-1.230919,-1.204655,-1.218995,-1.222218,-1.209006,-1.216417,-1.239942,-1.209972,-1.229791,-1.240586,-1.202883,-1.229146,-1.236719,-1.210939,-1.22109,-1.214967,-1.218673,-1.231402,-1.21964,-1.210778,-1.241553,-1.224957,-1.21674,-1.214806,-1.200305,-1.236397,-1.215773,-1.231402,-1.226729,-1.214806,-1.234786,-1.20965,-1.249448,-1.209328,-1.231885,-1.215773,-1.218512,-1.244936,-1.21255,-1.214484,-1.226085,-1.233013,-1.189026,-1.241392,-1.191121,-1.227213,-1.230274,-1.22544,-1.199822,-1.211745,-1.196438,-1.18951,-1.182259,-1.138917,-1.123771,-1.084296,-1.030158,-1.015657,-0.935256,-0.878379,-0.825692,-0.734657,-0.687286,-0.6491
 18:35:48.23760,-0.566443,-0.523584,-0.509405,-0.383406,-0.369066,-0.320246,-0.311706,-0.257246,-0.237106,-0.21197,-0.206975,-0.188124,-0.163472,-0.199564,-0.15606,-0.18474,-0.187802,-0.19763,-0.213904,-0.25499,-0.270297,-0.284959,-0.344575,-0.341192,-0.390496,-0.428521,-0.455107,-0.510694,-0.521329,-0.601568,-0.648778,-0.658928,-0.739652,-0.798301,-0.84406,-0.919788,-1.005989,-1.04627,-1.118937,-1.175331,-1.193216,-1.210778,-1.216256,-1.225924,-1.235913,-1.206911,-1.178553,-1.212873,-1.195471,-1.219962,-1.235269,-1.224796,-1.235752,-1.217062,-1.187737,-1.213034,-1.222379,-1.234947,-1.243164,-1.203205,-1.212712,-1.234302,-1.239619,-1.214162,-1.220929,-1.237847,-1.246064,-1.210939,-1.224474,-1.246709,-1.23108,-1.217062,-1.253154,-1.213356,-1.216579,-1.245581,-1.225763,-1.240908,-1.23543,-1.209328,-1.234947,-1.229791,-1.22544,-1.250092,-1.226729,-1.241714,-1.228502,-1.242358,-1.216095,-1.244131,-1.22963,-1.233174,-1.231563,-1.247675,-1.210778,-1.240264,-1.238491,-1.227535,-1.223507,-1.23543,-1.218834,-1.243003,-1.212067,-1.262177,-1.240586,-1.250092,-1.250415,-1.218512,-1.244292,-1.223829,-1.239458,-1.230113,-1.239297,-1.233819,-1.219479,-1.269427,-1.219479,-1.229791,-1.246548,-1.231241,-1.245903,-1.247514,-1.22544,-1.25122,-1.237525,-1.228179,-1.26556,-1.244936,-1.228985,-1.23833,-1.235269,-1.239136,-1.227696,-1.246548,-1.235108,-1.219801,-1.240264,-1.254765,-1.234141,-1.229791,-1.245742,-1.231724,-1.238169,-1.250092,-1.239619,-1.241875,-1.234463,-1.252993,-1.226085,-1.250898,-1.197244,-1.251542,-1.238814,-1.225763,-1.230596,-1.252831,-1.231563,-1.234947,-1.230596,-1.249287,-1.231724,-1.225279,-1.230757,-1.245742,-1.249126,-1.227052,-1.233335,-1.244131,-1.241392,-1.254926,-1.207556,-1.228824,-1.255248,-1.221734,-1.24542,-1.22109,-1.219801,-1.249609,-1.23543,-1.22399,-1.228502,-1.227374,-1.233497,-1.255087,-1.224312,-1.23543,-1.218834,-1.222701,-1.242197,-1.239297,-1.228018,-1.230435,-1.232852,-1.233819,-1.260726,-1.23688,-1.233819,-1.240425,-1.227052,-1.238008,-1.250092,-1.23108,-1.227857,-1.228502,-1.240586,-1.243325,-1.237202,-1.229468,-1.23688,-1.210617,-1.231402,-1.224151,-1.244453,-1.225601,-1.242197,-1.233013,-1.221251,-1.235269,-1.197888,-1.22689,-1.228663,-1.234302,-1.235108,-1.231724,-1.2111,-1.233658,-1.217706,-1.217223,-1.223023,-1.214967,-1.219157,-1.22544,-1.211584,-1.223185,-1.210617,-1.204333,-1.202722,-1.214967,-1.204172,-1.213678,-1.219157,-1.200788,-1.219318,-1.221896,-1.226407,-1.2053,-1.208522,-1.205783,-1.225763,-1.207878,-1.216256,-1.225763,-1.201111,-1.231885,-1.19821,-1.203689,-1.230757,-1.196277,-1.209972,-1.221896,-1.209006,-1.212228,-1.226729,-1.205461,-1.214806,-1.224151,-1.2053,-1.203527,-1.210134,-1.197244,-1.198855,-1.22399,-1.199499,-1.208361,-1.218351,-1.200627,-1.197244,-1.174525,-1.211906,-1.184031,-1.198533,-1.204494,-1.209328,-1.199016,-1.17098,-1.203366,-1.177264,-1.190154,-1.183065,-1.183548,-1.188221,-1.178714,-1.175009,-1.189993,-1.177587,-1.177748,-1.197727,-1.157768,-1.171142,-1.191443,-1.16518,-1.156963,-1.160185,-1.146973,-1.147134,-1.152451,-1.137467,-1.139561,-1.154385,-1.129572,-1.158896,-1.14649,-1.132955,-1.155513,-1.136017,-1.145684,-1.163085,-1.128605,-1.141656,-1.172914,-1.120549,-1.154707,-1.15229,-1.130538,-1.132633,-1.131344,-1.113459,-1.118776,-1.109431,-1.141495,-1.112976,-1.116843,-1.116037,-1.11362,-1.087518,-1.098152,-1.113459,-1.074951,-1.079623,-1.093158,-1.062866,-1.088002,-1.093158,-1.05481,-1.10782,-1.076723,-1.087035,-1.090902,-1.080751,-1.079945,-1.101375,-1.094124,-1.101858,-1.098152,-1.072856,-1.088324,-1.089129,-1.106531,-1.080912,-1.090741,-1.087679,-1.085585,-1.068344,-1.076401,-1.098152,-1.05771,-1.057227,-1.074789,-1.031286,-1.048526,-1.065605,-1.040953,-1.03757,-1.044981,-1.020974,-1.025002,-1.021941,-0.991488,-1.009856,-1.007762,-0.983593,-0.972153,-0.990522,-0.951852,-0.979726,-0.951046,-0.949596,-0.968286,-0.94009,-0.953141,-0.939284,-0.938801,-0.952819,-0.932517,-0.902065,-0.949113,-0.916888,-0.908509,-0.939606,-0.891269,-0.916082,-0.899164,-0.877251,-0.884341,-0.887724,-0.887241,-0.86839,-0.839871,-0.873384,-0.823597,-0.809579,-0.818119,-0.818119,-0.792661,-0.828914,-0.834392,-0.843899,-0.824886,-0.849538,-0.849216,-0.865812,-0.885147,-0.851472,-0.90722,-0.891108,-0.913504,-0.91286,-0.923011,-0.916082,-0.934934,-0.933161,-0.934934,-0.943151,-0.93864,-0.957813,-0.95588,-0.971187,-0.945407,-0.949113,-0.952013,-0.96732,-0.965386,-0.98166,-0.979404,-0.966192,-0.978276,-0.966514,-0.957975,-0.959264,-0.976826,-0.947501,-0.966997,-0.965708,-0.928972,-0.975376,-0.976826,-0.932356,-0.975054,-0.95733,-0.966836,-0.968286,-0.97876,-0.965064,-0.978598,-0.993905,-0.998094,-1.021296,-0.9931,-1.023874,-1.01179,-1.024841,-1.047721,-1.044659,-1.055132,-1.079623,-1.074951,-1.059322,-1.116359,-1.078979,-1.108948,-1.106047,-1.097991,-1.095413,-1.104758,-1.110076,-1.112815,-1.117487,-1.108303,-1.102986,-1.111042,-1.097025,-1.092513,-1.097025,-1.090741,-1.08204,-1.088485,-1.046432,-1.094285,-1.03467,-1.056582,-1.056099,-1.019524,-1.05481,-1.030964,-1.03757,-1.044176,-1.033864,-1.020813,-1.029514,-1.011307,-0.983271,-1.029836,-1.006795,-1.008084,-1.015174,-1.027419,-1.027258,-1.019041,-1.010501,-1.015012,-0.996644,-0.97022,-1.008406,-0.986493,-0.966675,-1.003089,-0.957169,-0.97167,-0.968286,-0.953302,-0.925105,-0.941218,-0.926555,-0.933161,-0.898681,-0.880957,-0.882246,-0.873384,-0.866939,-0.851955,-0.823919,-0.83697,-0.858722,-0.810868,-0.803296,-0.841965,-0.777032,-0.803779,-0.830525,-0.804101,-0.808774,-0.791856,-0.763015,-0.783477,-0.779127,-0.744969,-0.768654,-0.739652,-0.736268,-0.752703,-0.718544,-0.731273,-0.702915,-0.713549,-0.692442,-0.708071,-0.687447,-0.682936,-0.691798,-0.665535,-0.682936,-0.645555,-0.635243,-0.641688,-0.610108,-0.616231,-0.600118,-0.580783,-0.576111,-0.605919,-0.550009,-0.587873,-0.54872,-0.532446,-0.556615,-0.525357,-0.537924,-0.558387,-0.53164,-0.528096,-0.542597,-0.530029,-0.501833,-0.543403,-0.536313,-0.514239,-0.53873,-0.545497,-0.535669,-0.565799,-0.561287,-0.575788,-0.569827,-0.558548,-0.608013,-0.584167,-0.607852,-0.616231,-0.603985,-0.623803,-0.633793,-0.64056,-0.599957,-0.63186,-0.615908,-0.62622,-0.622353,-0.620903,-0.598829,-0.596735,-0.588034,-0.577883,-0.559998,-0.566604,-0.565154,-0.536635,-0.517623,-0.540019,-0.522456,-0.530996,-0.504894,-0.515689,-0.511017,-0.483464,-0.492648,-0.495871,-0.464129,-0.463163,-0.487654,-0.471058,-0.444633,-0.449306,-0.452045,-0.425137,-0.448178,-0.430132,-0.413859,-0.45269,-0.415953,-0.427554,-0.450595,-0.420787,-0.41547,-0.423365,-0.421593,-0.43835,-0.447856,-0.447373,-0.448017,-0.454784,-0.453495,-0.468963,-0.456718,-0.472347,-0.476536,-0.468158,-0.463646,-0.497643,-0.477986,-0.464935,-0.503605,-0.470897,-0.486526,-0.501349,-0.501833,-0.504088,-0.502799,-0.511339,-0.532285,-0.518751,-0.513111,-0.560482,-0.501188,-0.562415,-0.537441,-0.535346,-0.53873,-0.548075,-0.552425,-0.551298,-0.535991,-0.52584,-0.516978,-0.532607,-0.505538,-0.506022,-0.519878,-0.515045,-0.520362,-0.509889,-0.519234,-0.507472,-0.496677,-0.514884,-0.506183,-0.46848,-0.505699,-0.513756,-0.493454,-0.498932,-0.523745,-0.507794,-0.516334,-0.517945,-0.49861,-0.540502,-0.512467,-0.534863,-0.529707,-0.536474,-0.535991,-0.537119,-0.533413,-0.539858,-0.547753,-0.53438,-0.556292,-0.540019,-0.551781,-0.540825,-0.519073,-0.544369,-0.554681,-0.55017,-0.57031,-0.545014,-0.547592,-0.578528,-0.553231,-0.5803,-0.589484,-0.595284,-0.609624,-0.599796,-0.59899,-0.611558,-0.637982,-0.606885,-0.620581,-0.645072,-0.593512,-0.643138,-0.63476,-0.62767,-0.646039,-0.650228,-0.647489,-0.629604,-0.624126,-0.639594,-0.637177,-0.616069,-0.639594,-0.620903,-0.60898,-0.626381,-0.605758,-0.610913,-0.599635,-0.589645,-0.586906,-0.579333,-0.570149,-0.570794,-0.58175,-0.549042,-0.560643,-0.55887,-0.520201,-0.541469,-0.581428,-0.522134,-0.539213,-0.551459,-0.50006,-0.543564,-0.533252,-0.556937,-0.543403,-0.571599,-0.542436,-0.559515,-0.541469,-0.567732,-0.588517,-0.541308,-0.574177,-0.578205,-0.577561,-0.575144,-0.607208,-0.546303,-0.593673,-0.618164,-0.547914,-0.599957,-0.603502,-0.584973,-0.613814,-0.585778,-0.631537,-0.629282,-0.602857,-0.623159,-0.627831,-0.643783,-0.672141,-0.678908,-0.666662,-0.687931,-0.693892,-0.733207,-0.727084,-0.742552,-0.750447,-0.749319,-0.764948,-0.752703,-0.799267,-0.725956,-0.769459,-0.756731,-0.716127,-0.738685,-0.71645,-0.695504,-0.714355,-0.656834,-0.625092,-0.623803,-0.622998,-0.579011,-0.570955,-0.548881,-0.533413,-0.5115,-0.473958,-0.438511,-0.428199,-0.350537,-0.347153,-0.346348,-0.262563,-0.262885,-0.193441,-0.151871,-0.131891,-0.073242,-0.012982,0.012476,0.096583,0.155393,0.181012,0.270597,0.293316,0.349548,0.389668,0.434622,0.470714,0.501167,0.53597,0.575123,0.610732,0.648918,0.693067,0.729642,0.766701,0.803437,0.834051,0.863215,0.89399,0.917031,0.941038,0.962307,0.972941,0.98712,1.004199,1.004361,1.010967,1.012739,1.006939,0.994371,0.991632,0.979225,0.948128,0.932338,0.903496,0.876749,0.816972,0.757355,0.727386,0.673409,0.614599,0.558205,0.467008,0.409326,0.346326,0.254646,0.205503,0.132352,0.044701,-0.031994,-0.124158,-0.196825,-0.29656,-0.366649,-0.438672,-0.51585,-0.638627,-0.696954,-0.763659,-0.84551,-0.880635,-0.941057,-0.989071,-1.00325,-0.999222,-1.039826,-1.022102,-1.036442,-1.064639,-1.0619,-1.079784,-1.072856,-1.070278,-1.076884,-1.073017,-1.074628,-1.079623,-1.086229,-1.100892,-1.106531,-1.111203,-1.108464,-1.126027,-1.119421,-1.118937,-1.124254,-1.121999,-1.109109,-1.112009,-1.107981,-1.10218,-1.119743,-1.095413,-1.102664,-1.086551,-1.095252,-1.092513,-1.086229,-1.081073,-1.072373,-1.055293,-1.032897,-1.046109,-1.021457,-1.017913,-1.00744,-0.981338,-0.969414,-0.948146,-0.913182,-0.909154,-0.903192,-0.879991,-0.861622,-0.827464,-0.819247,-0.809096,-0.745613,-0.767204,-0.748836,-0.730467,-0.706943,-0.682614,-0.662312,-0.661184,-0.647166,-0.61478,-0.633471,-0.587712,-0.599474,-0.596735,-0.576433,-0.550814,-0.553714,-0.550975,-0.545497,-0.533896,-0.515528,-0.507633,-0.506827,-0.501188,-0.50296,-0.482175,-0.469124,-0.495226,-0.472025,-0.454945,-0.483464,-0.485237,-0.45994,-0.476375,-0.47283,-0.493293,-0.476697,-0.490876,-0.487815,-0.489104,-0.493937,-0.491037,-0.5144,-0.484914,-0.52004,-0.495226,-0.500705,-0.518428,-0.485881,-0.480081,-0.5115,-0.504572,-0.470252,-0.499899,-0.45994,-0.466869,-0.475086,-0.465902,-0.460585,-0.483142,-0.481531,-0.461551,-0.46993,-0.454623,-0.476536,-0.447534,-0.448984,-0.481853,-0.429327,-0.454301,-0.485237,-0.450595,-0.468963,-0.46558,-0.419659,-0.467352,-0.483787,-0.451401,-0.464452,-0.451401,-0.43835,-0.467191,-0.473958,-0.426426,-0.462196,-0.470736,-0.439961,-0.453012,-0.41837,-0.449628,-0.431582,-0.427877,-0.441572,-0.416276,-0.432549,-0.425137,-0.414987,-0.406125,-0.42836,-0.408058,-0.401452,-0.436738,-0.40967,-0.407897,-0.408703,-0.412409,-0.417726,-0.441411,-0.411442,-0.430455,-0.472186,-0.410475,-0.447856,-0.456234,-0.42691,-0.435772,-0.452851,-0.436094,-0.463485,-0.438994,-0.446889,-0.466224,-0.448178,-0.462357,-0.440283,-0.460585,-0.473797,-0.450595,-0.440605,-0.457523,-0.449789,-0.465902,-0.464774,-0.430777,-0.442378,-0.473475,-0.443344,-0.447856,-0.447695,-0.4427,-0.433355,-0.4485,-0.437383,-0.447856,-0.462357,-0.414342,-0.453334,-0.418531,-0.424976,-0.402741,-0.422882,-0.441411,-0.394363,-0.407253,-0.419176,-0.410797,-0.377767,-0.419981,-0.429166,-0.417887,-0.413859,-0.425782,-0.392268,-0.438994,-0.42546,-0.385823,-0.411281,-0.402902,-0.374383,-0.439961,-0.387757,-0.379378,-0.385823,-0.380667,-0.375511,-0.402097,-0.373417,-0.378734,-0.40258,-0.354887,-0.382762,-0.363105,-0.380345,-0.380345,-0.346509,-0.355693,-0.348442,-0.330074,-0.312028,-0.358915,-0.300427,-0.314606,-0.343125,-0.32089,-0.320729,-0.313478,-0.301555,-0.304939,-0.301072,-0.307356,-0.309773,-0.287699,-0.300911,-0.307195,-0.264497,-0.301394,-0.287215,-0.276098,-0.272714,-0.299622,-0.284154,-0.252251,-0.308645,-0.286571,-0.296722,-0.314929,-0.299944,-0.291727,-0.325079,-0.294466,-0.31944,-0.309289,-0.314445,-0.343286,-0.327013,-0.323307,-0.31509,-0.307517,-0.350215,-0.329752,-0.34087,-0.347476,-0.338292,-0.335552,-0.338292,-0.321535,-0.295433,-0.335069,-0.305422,-0.32943,-0.31799,-0.303328,-0.3109,-0.341675,-0.299783,-0.269492,-0.324435,-0.281898,-0.278676,-0.295271,-0.295916,-0.318957,-0.310739,-0.283509,-0.27787,-0.294627,-0.306711,-0.303811,-0.314767,-0.308484,-0.304778,-0.296722,-0.326852,-0.312028,-0.306389,-0.314767,-0.337325,-0.291727,-0.317023,-0.332974,-0.28931,-0.330719,-0.318473,-0.339258,-0.323146,-0.341836,-0.33233,-0.344898,-0.330719,-0.331847,-0.342964,-0.339258,-0.341675,-0.333458,-0.308806,-0.347315,-0.357304,-0.307033,-0.337808,-0.32089,-0.309289,-0.349409,-0.318796,-0.280287,-0.321857,-0.312189,-0.312834,-0.3022,-0.319279,-0.307195,-0.276903,-0.297044,-0.285121,-0.316218,-0.28367,-0.303328,-0.281737,-0.281737,-0.289632,-0.262241,-0.275614,-0.291404,-0.271264,-0.28367,-0.309611,-0.262241,-0.278353,-0.287215,-0.294144,-0.284476,-0.291727,-0.29221,-0.301072,-0.316056,-0.310417,-0.354726,-0.360688,-0.339097,-0.34812,-0.367455,-0.366972,-0.352954,-0.374867,-0.359077,-0.3768,-0.369389,-0.403386,-0.400808,-0.397746,-0.407736,-0.374061,-0.393557,-0.423365,-0.40967,-0.412248,-0.408381,-0.395974,-0.370355,-0.416437,-0.357949,-0.414342,-0.400969,-0.402097,-0.375189,-0.418854,-0.399519,-0.405641,-0.406608,-0.431421,-0.447695,-0.424332,-0.432227,-0.422721,-0.4369,-0.449628,-0.425943,-0.437222,-0.467352,-0.433355,-0.45124,-0.489426,-0.46703,-0.461229,-0.493293,-0.468641,-0.468963,-0.472186,-0.480564,-0.495549,-0.491198,-0.512789,-0.502316,-0.52004,-0.520201,-0.522134,-0.499738,-0.51295,-0.522134,-0.515528,-0.538085,-0.547914,-0.509083,-0.520845,-0.557098,-0.506827,-0.568699,-0.552587,-0.54453,-0.574661,-0.589323,-0.56451,-0.579333,-0.581106,-0.589645,-0.603341,-0.59899,-0.570794,-0.620098,-0.595123,-0.58755,-0.631215,-0.613169,-0.613975,-0.621548,-0.630409,-0.63766,-0.643138,-0.64765,-0.658445,-0.628637,-0.656995,-0.658928,-0.662795,-0.652322,-0.673913,-0.666018,-0.662151,-0.674074,-0.660056,-0.676974,-0.684386,-0.652645,-0.667951,-0.699854,-0.664568,-0.672463,-0.685836,-0.665535,-0.702915,-0.672463,-0.694859,-0.691798,-0.661345,-0.700498,-0.693248,-0.665535,-0.706782,-0.694053,-0.67633,-0.70066,-0.691153,-0.704849,-0.685836,-0.681002,-0.692281,-0.705332,-0.711294,-0.691959,-0.718544,-0.706621,-0.695826,-0.72934,-0.713066,-0.746097,-0.714194,-0.722089,-0.726439,-0.730145,-0.740296,-0.740618,-0.735946,-0.734012,-0.755764,-0.742552,-0.766559,-0.778644,-0.780738,-0.790244,-0.789278,-0.777838,-0.783961,-0.806035,-0.801684,-0.801523,-0.790083,-0.78106,-0.784444,-0.758986,-0.787828,-0.782188,-0.764142,-0.791695,-0.795723,-0.760114,-0.79959,-0.796045,-0.808613,-0.81393,-0.806518,-0.817636,-0.828431,-0.833909,-0.807324,-0.834876,-0.827464,-0.810707,-0.83697,-0.827947,-0.829559,-0.839065,-0.83697,-0.845349,-0.84406,-0.835037,-0.849699,-0.857111,-0.860817,-0.865006,-0.838743,-0.862267,-0.876768,-0.870484,-0.886919,-0.880152,-0.871773,-0.889175,-0.885469,-0.876768,-0.886435,-0.901098,-0.897714,-0.905448,-0.904481,-0.916082,-0.912376,-0.909315,-0.910443,-0.911087,-0.894331,-0.889175,-0.912538,-0.887724,-0.923011,-0.900776,-0.912538,-0.911893,-0.904643,-0.913827,-0.933161,-0.936384,-0.92285,-0.946696,-0.946857,-0.949757,-0.963936,-0.972315,-0.97312,-0.984882,-0.985366,-0.989716,-0.994711,-0.996483,-0.978115,-0.985688,-0.973765,-0.984882,-0.969737,-0.968931,-0.97457,-0.971187,-0.971026,-0.972153,-0.971026,-0.963775,-0.963131,-0.97312,-0.98021,-0.976504,-0.965225,-0.960553,-0.975537,-0.967159,-0.972153,-0.969414,-0.963936,-0.974409,-0.957652,-0.980049,-0.983593,-0.981176,-0.989716,-0.978437,-0.978921,-1.001639,-0.993261,-0.997289,-1.022746,-0.984077,-0.997772,-0.997933,-1.004056,-0.996967,-1.007117,-1.006151,-0.995839,-1.010823,-1.021135,-1.010501,-1.013079,-1.004056,-1.009856,-1.006634,-1.010501,-1.009212,-1.015657,-1.026452,-1.028869,-1.002606,-1.011307,-1.029514,-1.000189,-1.028063,-1.018396,-1.01469,-1.006795,-1.02468,-1.011468,-1.019524,-1.015818,-1.008406,-1.026452,-1.00035,-1.021296,-1.027258,-1.013723,-1.031286,-1.025002,-1.02613,-1.027902,-1.02468,-1.034992,-1.054488,-1.043692,-1.019685,-1.053682,-1.026452,-1.030641,-1.043531,-1.03612,-1.02903,-1.026613,-1.033381,-1.03048,-1.031286,-1.035314,-1.033703,-1.029514,-1.04192,-1.045304,-1.045948,-1.042081,-1.045787,-1.038698,-1.054971,-1.058677,-1.019846,-1.056582,-1.050299,-1.042887,-1.045787,-1.049332,-1.027097,-1.041115,-1.048687,-1.039181,-1.056582,-1.03757,-1.053843,-1.050621,-1.054649,-1.037248,-1.050137,-1.043854,-1.026613,-1.021135,-1.005184,-1.004539,-0.975054,-0.985688,-0.976343,-0.967481,-0.964742,-0.954913,-0.945407,-0.967642,-0.952335,-0.963453,-0.990199,-0.964097,-0.987782,-1.013723,-1.009212,-1.031447,-1.032414,-1.050299,-1.049815,-1.064316,-1.059483,-1.056744,-1.081396,-1.071084,-1.085424,-1.066894,-1.076401,-1.088807,-1.090257,-1.096702,-1.097669,-1.102664,-1.105725,-1.116521,-1.108464,-1.129733,-1.130216,-1.115232,-1.12071,-1.117326,-1.100247,-1.11217,-1.11072,-1.090741,-1.094124,-1.088968,-1.061094,-1.058194,-1.042726,-1.011951,-1.012596,-0.981176,-0.956041,-0.958297,-0.931711,-0.94299,-0.924622,-0.876768,-0.878863,-0.804585,-0.795723,-0.791211,-0.742552,-0.695665,-0.652483,-0.59899,-0.537763,-0.508761,-0.415309,-0.383406,-0.30655,-0.230016,-0.166855,-0.109979,-0.021038,0.056141,0.127519,0.184557,0.234828,0.320224,0.38129,0.432205,0.502778,0.527269,0.562878,0.590108,0.608154,0.626361,0.649241,0.661808,0.674215,0.684366,0.694033,0.687266,0.682432,0.685816,0.663097,0.658425,0.649079,0.622816,0.61911,0.560783,0.563361,0.499394,0.501972,0.450735,0.387896,0.362761,0.324735,0.252712,0.232411,0.180045,0.059041,0.056946,-0.048268,-0.130602,-0.185385,-0.25354,-0.34812,-0.435288,-0.529546,-0.607046,-0.693892,-0.769298,-0.842288,-0.920272,-1.001478,-1.064961,-1.085585,-1.087518,-1.10218,-1.124577,-1.141011,-1.107498,-1.121838,-1.118937,-1.151001,-1.150679,-1.12506,-1.137467,-1.160991,-1.146328,-1.138272,-1.171142,-1.153096,-1.135855,-1.168886,-1.168402,-1.161796,-1.161635,-1.179842,-1.165502,-1.155513,-1.189993,-1.177748,-1.172753,-1.170658,-1.206428,-1.178876,-1.168402,-1.174525,-1.198694,-1.2024,-1.191282,-1.165019,-1.178231,-1.194505,-1.196921,-1.201594,-1.187093,-1.177748,-1.177425,-1.16663,-1.185482,-1.198855,-1.20675,-1.208845,-1.208039,-1.190315,-1.188221,-1.207233,-1.189187,-1.189671,-1.190154,-1.2053,-1.197888,-1.188704,-1.187254,-1.204494,-1.182581,-1.198694,-1.211745,-1.188543,-1.209489,-1.207717,-1.206428,-1.192893,-1.187093,-1.172269,-1.173236,-1.181131,-1.192732,-1.18806,-1.195149,-1.209972,-1.203044,-1.200466,-1.206428,-1.191121,-1.185804,-1.186609,-1.190154,-1.183709,-1.208683,-1.205139,-1.191282,-1.203044,-1.177425,-1.198533,-1.199822,-1.197888,-1.201594,-1.194182,-1.184837,-1.198533,-1.206428,-1.181131,-1.183709,-1.188704,-1.183226,-1.198049,-1.205622,-1.177425,-1.19096,-1.206589,-1.200305,-1.208361,-1.184354,-1.194343,-1.199661,-1.194021,-1.184193,-1.18951,-1.185643,-1.209489,-1.204172,-1.194505,-1.194988,-1.206589,-1.193699,-1.196599,-1.195794,-1.2082,-1.18951,-1.201272,-1.191121,-1.202883,-1.193377,-1.18532,-1.203527,-1.188382,-1.19531,-1.182904,-1.194021,-1.203527,-1.170497,-1.194988,-1.188704,-1.181453,-1.175975,-1.184193,-1.170658,-1.177587,-1.169853,-1.17662,-1.173075,-1.170014,-1.176942,-1.175653,-1.184515,-1.200949,-1.182098,-1.194182,-1.190799,-1.191282,-1.177909,-1.207878,-1.186771,-1.187254,-1.196921,-1.19531,-1.185159,-1.199661,-1.209811,-1.179681,-1.196921,-1.197244,-1.197888,-1.194343,-1.214967,-1.193216,-1.200144,-1.197083,-1.200788,-1.204011,-1.187737,-1.216256,-1.210617,-1.184031,-1.206267,-1.199661,-1.193377,-1.21674,-1.196921,-1.19531,-1.22109,-1.189349,-1.189832,-1.208522,-1.183548,-1.216417,-1.212067,-1.177103,-1.202883,-1.218351,-1.187254,-1.2082,-1.218834,-1.19531,-1.218351,-1.197083,-1.205944,-1.20385,-1.194666
 18:35:49.23866,-1.204816,-1.206589,-1.185482,-1.213517,-1.210134,-1.200466,-1.201594,-1.200144,-1.2053,-1.200305,-1.198855,-1.206589,-1.219157,-1.197727,-1.21674,-1.208522,-1.213195,-1.186287,-1.216256,-1.199016,-1.212228,-1.200466,-1.195632,-1.190638,-1.216256,-1.177587,-1.201594,-1.211584,-1.178392,-1.20385,-1.194021,-1.194021,-1.191765,-1.201916,-1.185804,-1.20385,-1.190154,-1.200305,-1.195632,-1.199499,-1.192732,-1.209972,-1.190799,-1.191927,-1.203689,-1.184837,-1.211745,-1.192893,-1.176942,-1.213034,-1.184031,-1.184837,-1.202238,-1.19096,-1.196438,-1.206911,-1.202238,-1.219801,-1.18242,-1.213517,-1.207556,-1.191604,-1.203366,-1.212389,-1.192732,-1.208039,-1.196116,-1.180809,-1.197727,-1.193538,-1.189671,-1.181131,-1.198694,-1.164858,-1.188382,-1.174203,-1.184837,-1.187898,-1.191604,-1.185965,-1.184676,-1.186932,-1.191927,-1.19386,-1.17662,-1.191927,-1.183709,-1.193699,-1.194666,-1.184515,-1.183387,-1.180809,-1.191121,-1.17372,-1.192893,-1.18097,-1.158252,-1.199499,-1.166469,-1.180487,-1.186287,-1.179842,-1.175653,-1.184031,-1.16518,-1.167113,-1.158252,-1.152935,-1.167275,-1.158413,-1.16083,-1.154062,-1.153418,-1.136661,-1.164858,-1.143912,-1.142623,-1.185965,-1.144878,-1.153901,-1.176459,-1.157285,-1.177425,-1.186771,-1.178553,-1.191443,-1.173397,-1.197083,-1.196116,-1.169691,-1.20385,-1.182904,-1.177103,-1.195149,-1.169691,-1.17807,-1.168886,-1.179198,-1.165986,-1.168564,-1.176298,-1.161957,-1.19241,-1.184998,-1.182904,-1.189026,-1.190799,-1.176298,-1.197244,-1.181615,-1.185482,-1.213034,-1.185804,-1.195149,-1.200949,-1.186448,-1.187737,-1.191604,-1.196921,-1.182098,-1.209006,-1.18806,-1.186126,-1.205139,-1.181453,-1.200788,-1.182904,-1.190799,-1.191604,-1.189026,-1.175975,-1.198533,-1.187415,-1.183548,-1.199499,-1.166469,-1.201433,-1.158574,-1.150357,-1.179681,-1.178553,-1.14649,-1.155674,-1.160346,-1.144073,-1.171303,-1.151001,-1.142139,-1.143912,-1.115876,-1.123127,-1.141656,-1.122643,-1.127155,-1.120549,-1.09203,-1.143267,-1.09928,-1.102664,-1.133922,-1.11217,-1.125382,-1.128444,-1.129572,-1.129249,-1.134728,-1.128766,-1.146812,-1.152129,-1.14649,-1.17098,-1.136339,-1.154707,-1.164374,-1.153579,-1.140528,-1.152935,-1.14375,-1.121032,-1.157929,-1.121515,-1.126671,-1.139722,-1.123288,-1.116843,-1.112815,-1.113298,-1.131827,-1.133439,-1.133922,-1.119582,-1.111365,-1.114748,-1.118615,-1.126188,-1.127316,-1.114426,-1.113137,-1.090096,-1.115715,-1.091869,-1.112009,-1.117326,-1.088807,-1.121354,-1.082523,-1.11507,-1.099603,-1.088163,-1.077045,-1.106209,-1.078656,-1.091385,-1.107981,-1.077529,-1.108948,-1.106209,-1.104114,-1.101536,-1.111042,-1.107336,-1.102986,-1.112492,-1.103308,-1.101375,-1.099925,-1.09058,-1.076401,-1.065928,-1.086874,-1.078656,-1.065283,-1.089613,-1.073984,-1.065766,-1.088324,-1.074467,-1.066733,-1.075273,-1.064639,-1.081396,-1.055132,-1.087035,-1.057871,-1.064961,-1.056744,-1.052715,-1.058516,-1.009856,-1.041437,-1.014046,-1.00889,-1.019685,-0.993261,-0.987782,-0.992294,-0.97167,-0.983916,-0.977309,-0.955235,-0.970542,-0.957169,-0.960391,-0.949918,-0.928972,-0.933161,-0.947663,-0.935739,-0.903354,-0.925105,-0.903998,-0.890625,-0.924783,-0.877413,-0.898359,-0.905932,-0.875962,-0.892236,-0.906415,-0.867101,-0.879185,-0.87709,-0.856305,-0.894975,-0.860978,-0.896103,-0.877574,-0.913988,-0.900614,-0.92011,-0.895136,-0.882891,-0.922366,-0.871129,-0.916082,-0.916405,-0.863878,-0.885469,-0.883374,-0.8555,-0.850505,-0.848732,-0.851472,-0.868228,-0.820697,-0.846477,-0.840676,-0.832137,-0.845027,-0.850666,-0.840837,-0.825208,-0.846799,-0.828109,-0.835198,-0.855661,-0.82537,-0.828914,-0.836809,-0.837776,-0.829075,-0.845027,-0.833909,-0.80974,-0.806357,-0.847121,-0.835037,-0.795723,-0.842932,-0.802007,-0.811674,-0.81393,-0.80974,-0.80104,-0.811029,-0.787022,-0.766237,-0.800718,-0.750447,-0.759792,-0.782511,-0.792822,-0.764304,-0.787022,-0.784122,-0.782188,-0.802651,-0.78815,-0.819569,-0.813769,-0.798945,-0.837454,-0.816669,-0.84116,-0.843738,-0.851149,-0.863556,-0.847282,-0.875801,-0.892719,-0.922688,-0.903515,-0.940412,-0.933645,-0.973442,-0.954269,-0.978921,-0.976665,-1.016946,-0.99745,-1.018235,-1.038375,-1.006795,-1.058355,-1.042565,-1.048204,-1.075917,-1.08349,-1.078818,-1.108625,-1.10637,-1.104275,-1.114265,-1.138595,-1.136661,-1.131505,-1.13505,-1.141978,-1.1365,-1.160024,-1.142784,-1.154224,-1.141011,-1.133761,-1.146167,-1.141978,-1.154385,-1.139884,-1.139884,-1.139078,-1.12216,-1.111526,-1.14375,-1.109753,-1.108948,-1.136983,-1.089452,-1.106047,-1.109592,-1.089613,-1.095736,-1.109592,-1.106531,-1.095252,-1.113781,-1.091869,-1.104114,-1.110398,-1.106853,-1.132633,-1.114909,-1.125543,-1.125866,-1.125221,-1.135694,-1.148101,-1.1394,-1.137467,-1.140367,-1.137628,-1.147295,-1.131988,-1.155029,-1.140206,-1.136661,-1.121354,-1.129733,-1.105725,-1.093963,-1.136822,-1.070439,-1.106692,-1.096541,-1.069956,-1.07624,-1.070439,-1.04337,-1.057871,-1.050943,-1.027258,-1.051749,-1.048687,-0.993905,-1.033219,-1.007762,-1.002606,-0.986493,-1.013079,-0.975215,-0.9989,-0.992133,-0.976665,-1.011307,-0.979887,-0.988588,-0.969414,-0.971026,-0.958136,-0.984721,-0.949113,-0.967642,-0.937028,-0.939929,-0.963292,-0.928489,-0.942023,-0.922688,-0.939606,-0.955558,-0.920433,-0.954269,-0.947179,-0.929294,-0.92011,-0.944279,-0.916566,-0.920272,-0.930261,-0.925266,-0.911249,-0.90722,-0.872257,-0.85985,-0.866939,-0.818763,-0.837132,-0.859044,-0.812802,-0.797012,-0.785089,-0.778966,-0.778482,-0.790567,-0.766559,-0.759792,-0.754314,-0.744002,-0.754636,-0.757375,-0.783155,-0.783961,-0.777355,-0.778482,-0.795239,-0.805068,-0.825853,-0.82263,-0.81683,-0.835359,-0.801845,-0.811513,-0.805068,-0.747224,-0.796206,-0.763176,-0.753992,-0.735785,-0.710327,-0.683258,-0.71935,-0.697276,-0.643622,-0.679391,-0.648294,-0.623481,-0.609786,-0.613975,-0.565638,-0.534541,-0.506344,-0.490232,-0.467191,-0.408219,-0.397102,-0.34087,-0.3109,-0.287376,-0.224699,-0.165728,-0.122063,-0.030544,-0.026033,0.013443,0.119624,0.152815,0.22516,0.299761,0.330375,0.38709,0.428661,0.462013,0.498911,0.542415,0.577701,0.618788,0.661808,0.701606,0.741243,0.778463,0.806499,0.842107,0.873204,0.896568,0.924442,0.947322,0.964401,0.988731,1.001944,1.018056,1.033041,1.042064,1.051087,1.056243,1.059304,1.061077,1.050281,1.047381,1.033847,1.02144,1.00001,0.981642,0.932499,0.884,0.859509,0.777818,0.722391,0.712563,0.641668,0.573028,0.514218,0.423988,0.394824,0.282198,0.211787,0.138636,0.041962,-0.036345,-0.081621,-0.171045,-0.283348,-0.31509,-0.418209,-0.501833,-0.566121,-0.642172,-0.722089,-0.773326,-0.833909,-0.903676,-0.936223,-0.981015,-0.989555,-1.007117,-1.034508,-1.016624,-1.03902,-1.052393,-1.057388,-1.053199,-1.053521,-1.047076,-1.05771,-1.068183,-1.066733,-1.068022,-1.076723,-1.081234,-1.086874,-1.083812,-1.076078,-1.092191,-1.085262,-1.083812,-1.092352,-1.072695,-1.094285,-1.097186,-1.09348,-1.104436,-1.085262,-1.093319,-1.097025,-1.081879,-1.074145,-1.057066,-1.034347,-0.995194,-0.991166,-0.966353,-0.932356,-0.910121,-0.865812,-0.827142,-0.819086,-0.782349,-0.765431,-0.738524,-0.690831,-0.710649,-0.661184,-0.644105,-0.635082,-0.612847,-0.579655,-0.580139,-0.549525,-0.52729,-0.542597,-0.516334,-0.511822,-0.511661,-0.5115,-0.466707,-0.479597,-0.456718,-0.478147,-0.458007,-0.429166,-0.465096,-0.416598,-0.418854,-0.450434,-0.403547,-0.415631,-0.418048,-0.390335,-0.384695,-0.406286,-0.382762,-0.411764,-0.402902,-0.391463,-0.401774,-0.383567,-0.392268,-0.392913,-0.390335,-0.37825,-0.409347,-0.37245,-0.353759,-0.393396,-0.342159,-0.363427,-0.374061,-0.345542,-0.370194,-0.359077,-0.322179,-0.358271,-0.334586,-0.320729,-0.334908,-0.304455,-0.294788,-0.313478,-0.301394,-0.304133,-0.306228,-0.316862,-0.266752,-0.286893,-0.285282,-0.260952,-0.282704,-0.259985,-0.260791,-0.245323,-0.26933,-0.270619,-0.246934,-0.234689,-0.265786,-0.21761,-0.238233,-0.26208,-0.240811,-0.248223,-0.265786,-0.23485,-0.254346,-0.261919,-0.217932,-0.231788,-0.276903,-0.248223,-0.238233,-0.256279,-0.233883,-0.248384,-0.242423,-0.249512,-0.241134,-0.235172,-0.238717,-0.245645,-0.234205,-0.248707,-0.257891,-0.20762,-0.25499,-0.264013,-0.243228,-0.26933,-0.255151,-0.219382,-0.247095,-0.276742,-0.256602,-0.284315,-0.252574,-0.223893,-0.291566,-0.27207,-0.280287,-0.270136,-0.272714,-0.271908,-0.278514,-0.28077,-0.295594,-0.287699,-0.270619,-0.292693,-0.291404,-0.28641,-0.26353,-0.300911,-0.27642,-0.291727,-0.279159,-0.264336,-0.291566,-0.259502,-0.276259,-0.275292,-0.266914,-0.264658,-0.242906,-0.244195,-0.290438,-0.245162,-0.255957,-0.283348,-0.235817,-0.233239,-0.237589,-0.203753,-0.241778,-0.232272,-0.206975,-0.195374,-0.215354,-0.200369,-0.221638,-0.247901,-0.175395,-0.233077,-0.22196,-0.225988,-0.248384,-0.240973,-0.216643,-0.235655,-0.230338,-0.218415,-0.267397,-0.230661,-0.218899,-0.230822,-0.231627,-0.210037,-0.230499,-0.245484,-0.213259,-0.219543,-0.208748,-0.232111,-0.217126,-0.177812,-0.23485,-0.221315,-0.220671,-0.236461,-0.221638,-0.222282,-0.220026,-0.228888,-0.246612,-0.229694,-0.234528,-0.270297,-0.242584,-0.250157,-0.25918,-0.267236,-0.274003,-0.293338,-0.265463,-0.25064,-0.294466,-0.275937,-0.283187,-0.284637,-0.28367,-0.294466,-0.289793,-0.286087,-0.305261,-0.271425,-0.279159,-0.304455,-0.254024,-0.275453,-0.281092,-0.244034,-0.273842,-0.254668,-0.267397,-0.24629,-0.246451,-0.274164,-0.257568,-0.277709,-0.267075,-0.283832,-0.259663,-0.264819,-0.286571,-0.275453,-0.261113,-0.293499,-0.248545,-0.256602,-0.292532,-0.221477,-0.270136,-0.266591,-0.254024,-0.253379,-0.242584,-0.22341,-0.223893,-0.238878,-0.202786,-0.214709,-0.20907,-0.181195,-0.195052,-0.205042,-0.199241,-0.195697,-0.206975,-0.191024,-0.178456,-0.172656,-0.176201,-0.190057,-0.164922,-0.211326,-0.192958,-0.16895,-0.204558,-0.18184,-0.174106,-0.208425,-0.21052,-0.189091,-0.208748,-0.195697,-0.201819,-0.215998,-0.197469,-0.229855,-0.217126,-0.220026,-0.222443,-0.229372,-0.20907,-0.220026,-0.222282,-0.192474,-0.233561,-0.183773,-0.234044,-0.229533,-0.185224,-0.218254,-0.200853,-0.191991,-0.177812,-0.189735,-0.164439,-0.188124,-0.174428,-0.169111,-0.146232,-0.168306,-0.162505,-0.162988,-0.153482,-0.135436,-0.180068,-0.150421,-0.17185,-0.153643,-0.14607,-0.181195,-0.16605,-0.160249,-0.171367,-0.167983,-0.146393,-0.189735,-0.176684,-0.144943,-0.169111,-0.15751,-0.170239,-0.157188,-0.168306,-0.162183,-0.173623,-0.146554,-0.153482,-0.157188,-0.152193,-0.171206,-0.120291,-0.138175,-0.136564,-0.116424,-0.134308,-0.152354,-0.094994,-0.124963,-0.14172,-0.08726,-0.14607,-0.106756,-0.131891,-0.152032,-0.13592,-0.111268,-0.109012,-0.107562,-0.133019,-0.140431,-0.134792,-0.116907,-0.130764,-0.112879,-0.125447,-0.11159,-0.137531,-0.122224,-0.129797,-0.111912,-0.138659,-0.127541,-0.118679,-0.155254,-0.141237,-0.139303,-0.155738,-0.149615,-0.141237,-0.156705,-0.148165,-0.134631,-0.175234,-0.145104,-0.146715,-0.158316,-0.144459,-0.140753,-0.17185,-0.144781,-0.147198,-0.175234,-0.149776,-0.178779,-0.15606,-0.142203,-0.177006,-0.152354,-0.157349,-0.179584,-0.190863,-0.170078,-0.183129,-0.184096,-0.19328,-0.192635,-0.187802,-0.186029,-0.200208,-0.216159,-0.205525,-0.19328,-0.209231,-0.222121,-0.19908,-0.219704,-0.216321,-0.172978,-0.2334,-0.221154,-0.22196,-0.217448,-0.201497,-0.211326,-0.244678,-0.216804,-0.24919,-0.24629,-0.208264,-0.203108,-0.25354,-0.244356,-0.225505,-0.222121,-0.243551,-0.214226,-0.21052,-0.207298,-0.232433,-0.225344,-0.222604,-0.224699,-0.212776,-0.226471,-0.22486,-0.241617,-0.232272,-0.239845,-0.205686,-0.230016,-0.239522,-0.195052,-0.249351,-0.240811,-0.223249,-0.22631,-0.235011,-0.199241,-0.219704,-0.218899,-0.192313,-0.233722,-0.191024,-0.183612,-0.200692,-0.169595,-0.190702,-0.201658,-0.174912,-0.17604,-0.147682,-0.161377,-0.18329,-0.163633,-0.159927,-0.188124,-0.14881,-0.166533,-0.163794,-0.144459,-0.167661,-0.190541,-0.153321,-0.129797,-0.190702,-0.120452,-0.170239,-0.169595,-0.148487,-0.152193,-0.167017,-0.146715,-0.165728,-0.152676,-0.176523,-0.179906,-0.148971,-0.171045,-0.146876,-0.153321,-0.172011,-0.141559,-0.164116,-0.172656,-0.162827,-0.136081,-0.161861,-0.136725,-0.127219,-0.149937,-0.100794,-0.115779,-0.126252,-0.135436,-0.100311,-0.131408,-0.100311,-0.102889,-0.1016,-0.090483,-0.119807,-0.086938,-0.088549,-0.092738,-0.079526,-0.080654,-0.099989,-0.100633,-0.094511,-0.114329,-0.089194,-0.08146,-0.09435,-0.111429,-0.105306,-0.096444,-0.106595,-0.106595,-0.117068,-0.114973,-0.122546,-0.108367,-0.107723,-0.13028,-0.111912,-0.114973,-0.145426,-0.136081,-0.111106,-0.126897,-0.111429,-0.095316,-0.143009,-0.1045,-0.121257,-0.141076,-0.134953,-0.124158,-0.128508,-0.127058,-0.157349,-0.125769,-0.130441,-0.157349,-0.124802,-0.134631,-0.16041,-0.139142,-0.167983,-0.149776,-0.132536,-0.163955,-0.170722,-0.159121,-0.162183,-0.184418,-0.160894,-0.153321,-0.158316,-0.175717,-0.171045,-0.196663,-0.157832,-0.17894,-0.199403,-0.17604,-0.197147,-0.162827,-0.195213,-0.209876,-0.222282,-0.228727,-0.20762,-0.22486,-0.262241,-0.229049,-0.243873,-0.267719,-0.232433,-0.258213,-0.269008,-0.275131,-0.269814,-0.271908,-0.279965,-0.262563,-0.283026,-0.290921,-0.286087,-0.291243,-0.286087,-0.308161,-0.288665,-0.310095,-0.329752,-0.284154,-0.298011,-0.32798,-0.288988,-0.312189,-0.340547,-0.283187,-0.320246,-0.30945,-0.308967,-0.32798,-0.333458,-0.29366,-0.325402,-0.299944,-0.274648,-0.338775,-0.271264,-0.301716,-0.325885,-0.2993,-0.297527,-0.309128,-0.284637,-0.294949,-0.291082,-0.294788,-0.309611,-0.297205,-0.272875,-0.286893,-0.274648,-0.304939,-0.300266,-0.285121,-0.272392,-0.306389,-0.283509,-0.270942,-0.298977,-0.266591,-0.265625,-0.272231,-0.281737,-0.266591,-0.277548,-0.271586,-0.269814,-0.29076,-0.283993,-0.301233,-0.240811,-0.277709,-0.277226,-0.253862,-0.277709,-0.277226,-0.267075,-0.278514,-0.263691,-0.264174,-0.262402,-0.269169,-0.252251,-0.264658,-0.27497,-0.28641,-0.261274,-0.305261,-0.275614,-0.285765,-0.290115,-0.29511,-0.310578,-0.274648,-0.316862,-0.302522,-0.325724,-0.331685,-0.293016,-0.304455,-0.308806,-0.307839,-0.323307,-0.32524,-0.277709,-0.325079,-0.312028,-0.290277,-0.305744,-0.317829,-0.298977,-0.325885,-0.341997,-0.312351,-0.359077,-0.347153,-0.347798,-0.395491,-0.364716,-0.381634,-0.412892,-0.435127,-0.437705,-0.438188,-0.4485,-0.456879,-0.48427,-0.473636,-0.493132,-0.494904,-0.510211,-0.499416,-0.508761,-0.506344,-0.518912,-0.517623,-0.520845,-0.518428,-0.474764,-0.494904,-0.506827,-0.490393,-0.502316,-0.480564,-0.437544,-0.457523,-0.445117,-0.411281,-0.444956,-0.429327,-0.383245,-0.387434,-0.359721,-0.34377,-0.328302,-0.318796,-0.298977,-0.277709,-0.247579,-0.186835,-0.192152,-0.11449,-0.096766,-0.026516,-0.005409,0.028266,0.114951,0.161677,0.183107,0.270436,0.339397,0.374845,0.431722,0.515829,0.552888,0.607509,0.650852,0.691778,0.720619,0.757355,0.793447,0.827767,0.859831,0.896084,0.924442,0.948128,0.976164,1.001783,1.020795,1.04432,1.062688,1.071389,1.091368,1.099586,1.103292,1.107481,1.107803,1.109576,1.095558,1.088952,1.079284,1.049959,1.028046,1.001621,0.984542,0.924281,0.911391,0.835501,0.799893,0.740921,0.674537,0.617177,0.567389,0.48296,0.411742,0.344231,0.238211,0.185201,0.081437,0.004903,-0.063736,-0.183451,-0.25644,-0.300427,-0.413053,-0.469447,-0.540986,-0.627993,-0.688897,-0.735623,-0.779127,-0.807968,-0.84986,-0.856789,-0.868551,-0.90432,-0.89852,-0.921399,-0.923494,-0.936223,-0.919788,-0.918821,-0.889175,-0.847605,-0.77961,-0.735785,-0.66924,-0.616553,-0.545336,-0.481692,-0.456557,-0.339258,-0.34667,-0.282059,-0.24484,-0.207781,-0.171206,-0.161216,-0.133019,-0.097572,-0.061158,-0.073887,-0.051974,-0.01411,-0.043112,-0.026033,-0.026838,-0.039728,-0.029255,-0.014432,-0.045851,-0.038762,-0.037956,-0.064058,-0.052135,-0.072437,-0.054874,-0.075659,-0.07437,-0.080171,-0.091772,-0.106434,-0.062769,-0.07292,-0.079365,-0.01701,-0.062769,-0.04714,-0.027483,-0.021521,-0.01846,-0.008148,-0.040856,-0.032156,-0.017815,-0.053263,-0.047946,-0.058097,-0.086938,-0.116746,-0.135275,-0.154771,-0.210037,-0.22631,-0.216159,-0.247901,-0.273842,-0.325079,-0.318634,-0.341836,-0.349087,-0.364071,-0.385823,-0.389368,-0.3797,-0.433838,-0.412892,-0.409186,-0.448662,-0.419337,-0.439155,-0.464129,-0.426749,-0.436577,-0.449628,-0.455912,-0.421754,-0.417403,-0.423687,-0.443344,-0.419981,-0.411764,-0.429649,-0.398874,-0.40113,-0.420626,-0.398391,-0.371161,-0.417565,-0.367455,-0.384212,-0.405641,-0.373417,-0.369066,-0.353598,-0.363588,-0.338936,-0.339581,-0.35811,-0.356982,-0.354243,-0.349892,-0.383245,-0.337164,-0.401774,-0.417565,-0.383084,-0.384534,-0.399196,-0.400969,-0.428682,-0.430132,-0.412086,-0.456879,-0.431582,-0.437061,-0.476858,-0.443022,-0.463968,-0.459135,-0.470252,-0.447695,-0.458329,-0.478792,-0.460101,-0.460262,-0.443022,-0.478147,-0.457685,-0.462518,-0.461068,-0.48137,-0.419659,-0.460424,-0.453173,-0.421754,-0.465741,-0.433999,-0.473152,-0.478953,-0.458974,-0.471058,-0.486365,-0.491521,-0.530835,-0.546947,-0.55017,-0.5861,-0.576594,-0.579978,-0.627993,-0.623159,-0.643461,-0.654739,-0.635727,-0.631215,-0.663279,-0.651356,-0.634276,-0.677135,-0.641044,-0.66344,-0.629926,-0.646039,-0.656995,-0.632343,-0.652483,-0.653128,-0.609302,-0.624609,-0.659895,-0.644588,-0.645233,-0.645233,-0.659573,-0.671013,-0.673591,-0.685192,-0.683419,-0.698404,-0.698404,-0.70066,-0.725634,-0.720478,-0.734012,-0.739813,-0.744808,-0.745774,-0.759309,-0.76527,-0.785411,-0.793789,-0.804262,-0.814735,-0.81393,-0.822147,-0.823758,-0.850505,-0.84696,-0.837615,-0.845671,-0.844704,-0.843899,-0.855016,-0.867423,-0.849377,-0.863234,-0.871451,-0.871934,-0.860172,-0.870645,-0.863878,-0.879024,-0.880152,-0.87564,-0.861461,-0.869679,-0.862106,-0.870323,-0.870001,-0.886113,-0.889658,-0.886758,-0.903354,-0.899325,-0.912699,-0.928005,-0.932356,-0.928972,-0.940412,-0.928167,-0.939123,-0.942184,-0.933,-0.933806,-0.940251,-0.933323,-0.929456,-0.956202,-0.93864,-0.933323,-0.936062,-0.929778,-0.930906,-0.930422,-0.923494,-0.932034,-0.909315,-0.918177,-0.925105,-0.894492,-0.911249,-0.904643,-0.881763,-0.878057,-0.876446,-0.884502,-0.863073,-0.869195,-0.873868,-0.875157,-0.875318,-0.862911,-0.879507,-0.853244,-0.865812,-0.869517,-0.867745,-0.878379,-0.880957,-0.853727,-0.880152,-0.903031,-0.890786,-0.913827,-0.918016,-0.913504,-0.917532,-0.927039,-0.926233,-0.925105,-0.937351,-0.941379,-0.927844,-0.941057,-0.921077,-0.937512,-0.933806,-0.938479,-0.930906,-0.939123,-0.940734,-0.945085,-0.946212,-0.961197,-0.96732,-0.970542,-0.989555,-0.972315,-0.987138,-0.991811,-1.000672,-1.00325,-1.005989,-1.00035,-1.009856,-1.019202,-1.000511,-1.016946,-1.021457,-1.015818,-1.028386,-1.036442,-1.027097,-1.038053,-1.036764,-1.033703,-1.038375,-1.04627,-1.044981,-1.041276,-1.046432,-1.054488,-1.056099,-1.062383,-1.065766,-1.067055,-1.074145,-1.085585,-1.080912,-1.080268,-1.096219,-1.091546,-1.095736,-1.101053,-1.102986,-1.104597,-1.108464,-1.101053,-1.103308,-1.119582,-1.101053,-1.120065,-1.109753,-1.111365,-1.116198,-1.129572,-1.133922,-1.1365,-1.141656,-1.136017,-1.140045,-1.141334,-1.130861,-1.12796,-1.123127,-1.127638,-1.14085,-1.146651,-1.150518,-1.153579,-1.149873,-1.155674,-1.149873,-1.137306,-1.156157,-1.13795,-1.168886,-1.176136,-1.172914,-1.161474,-1.161474,-1.163408,-1.149229,-1.173881,-1.174203,-1.185482,-1.172108,-1.166308,-1.157285,-1.159057,-1.153418,-1.185643,-1.192893,-1.181292,-1.190799,-1.158735,-1.186932,-1.168402,-1.162763,-1.182259,-1.186448,-1.187898,-1.20385,-1.188865,-1.189349,-1.192732,-1.174203,-1.179198,-1.18097,-1.165824,-1.172269,-1.181131,-1.169369,-1.187415,-1.207556,-1.177748,-1.20675,-1.210617,-1.19676,-1.224796,-1.20965,-1.211261,-1.208361,-1.203689,-1.206911,-1.21255,-1.208522,-1.210778,-1.206589,-1.203205,-1.218834,-1.190476,-1.210295,-1.210456,-1.197244,-1.177587,-1.193377,-1.18097,-1.189187,-1.19676,-1.196438,-1.184354,-1.203044,-1.203689,-1.186932,-1.181453,-1.188865,-1.184837,-1.201272,-1.196116,-1.207878,-1.202238,-1.188221,-1.204655,-1.179359,-1.18951,-1.200788,-1.194988,-1.21819,-1.201272,-1.193699,-1.195632,-1.212228,-1.188382,-1.201272
 18:35:50.23872,-1.210456,-1.208361,-1.189026,-1.199661,-1.197405,-1.209972,-1.204494,-1.208845,-1.198533,-1.177587,-1.208845,-1.206105,-1.193216,-1.201111,-1.192571,-1.192249,-1.210456,-1.180165,-1.179037,-1.203527,-1.200788,-1.180648,-1.195471,-1.193538,-1.197083,-1.192088,-1.201594,-1.196438,-1.19241,-1.193054,-1.18387,-1.213195,-1.168886,-1.197888,-1.198694,-1.167597,-1.183226,-1.193538,-1.172914,-1.180648,-1.177264,-1.176136,-1.172753,-1.155513,-1.176298,-1.172108,-1.154385,-1.155835,-1.153257,-1.150357,-1.146973,-1.153579,-1.142945,-1.156802,-1.14649,-1.123127,-1.162119,-1.128121,-1.113943,-1.137144,-1.119743,-1.097991,-1.126027,-1.105242,-1.09638,-1.121354,-1.10218,-1.122321,-1.121354,-1.134566,-1.147134,-1.15229,-1.151646,-1.174686,-1.170819,-1.144556,-1.179681,-1.156318,-1.168725,-1.174525,-1.167275,-1.159057,-1.156318,-1.142945,-1.164697,-1.147779,-1.138272,-1.160507,-1.136983,-1.148262,-1.151484,-1.141817,-1.157929,-1.166308,-1.146006,-1.156802,-1.165341,-1.177909,-1.163569,-1.159702,-1.159541,-1.171464,-1.170014,-1.162763,-1.181937,-1.165341,-1.16663,-1.181615,-1.155996,-1.163569,-1.183226,-1.16083,-1.184354,-1.176942,-1.175653,-1.173397,-1.170014,-1.170658,-1.175009,-1.180648,-1.169208,-1.174847,-1.161474,-1.172914,-1.165663,-1.168402,-1.158252,-1.15084,-1.12941,-1.154062,-1.154868,-1.112331,-1.145845,-1.11072,-1.105725,-1.103469,-1.089613,-1.108303,-1.11362,-1.132311,-1.112331,-1.132311,-1.136983,-1.150357,-1.161796,-1.154546,-1.170819,-1.175492,-1.177587,-1.184193,-1.182259,-1.162441,-1.184031,-1.169691,-1.167758,-1.186932,-1.168725,-1.181776,-1.171947,-1.165502,-1.182098,-1.171786,-1.173075,-1.169047,-1.170175,-1.176136,-1.163569,-1.170497,-1.174686,-1.165986,-1.161474,-1.176298,-1.164858,-1.171303,-1.170014,-1.165986,-1.160668,-1.170497,-1.177909,-1.143428,-1.179198,-1.164052,-1.177264,-1.169369,-1.170014,-1.156802,-1.170175,-1.16518,-1.168402,-1.180326,-1.164052,-1.165824,-1.162763,-1.185804,-1.148906,-1.167113,-1.163891,-1.162441,-1.163246,-1.149712,-1.171464,-1.152451,-1.175331,-1.181292,-1.157768,-1.169853,-1.181615,-1.165341,-1.17807,-1.181615,-1.182098,-1.189832,-1.16228,-1.165663,-1.192893,-1.164052,-1.189026,-1.17517,-1.179359,-1.177425,-1.18387,-1.184193,-1.174042,-1.195471,-1.154707,-1.192249,-1.180003,-1.171947,-1.185965,-1.189832,-1.164858,-1.189671,-1.170336,-1.166147,-1.188704,-1.161796,-1.17372,-1.186287,-1.161635,-1.179037,-1.168241,-1.16953,-1.163569,-1.17662,-1.162763,-1.168402,-1.171142,-1.152129,-1.170336,-1.157768,-1.151001,-1.153579,-1.146006,-1.138917,-1.152612,-1.143428,-1.154062,-1.164374,-1.131988,-1.161796,-1.125705,-1.121354,-1.148745,-1.119904,-1.123288,-1.133761,-1.110881,-1.119421,-1.133116,-1.093319,-1.135372,-1.144073,-1.156157,-1.154868,-1.166147,-1.175814,-1.185159,-1.186448,-1.200788,-1.201433,-1.195955,-1.19676,-1.212067,-1.182742,-1.182581,-1.210134,-1.194343,-1.196599,-1.212067,-1.195794,-1.195794,-1.210939,-1.194666,-1.199661,-1.192088,-1.189993,-1.190638,-1.200788,-1.190315,-1.187415,-1.192088,-1.163085,-1.185643,-1.160507,-1.151807,-1.155996,-1.147295,-1.137789,-1.117165,-1.101214,-1.078495,-1.069795,-1.024358,-1.018235,-0.957008,-0.952013,-0.895297,-0.844382,-0.846799,-0.777032,-0.717255,-0.658284,-0.624609,-0.558548,-0.481531,-0.45124,-0.35956,-0.316862,-0.234689,-0.155416,-0.091772,-0.041179,0.065164,0.125263,0.218393,0.284132,0.335208,0.397564,0.426888,0.457502,0.49021,0.514057,0.54322,0.572706,0.59333,0.612182,0.634095,0.648596,0.65633,0.669381,0.670509,0.666803,0.668092,0.657619,0.645535,0.629583,0.621366,0.60332,0.592363,0.524208,0.526141,0.472325,0.447996,0.402075,0.366144,0.319901,0.255613,0.201475,0.171183,0.099966,0.003453,-0.029255,-0.114329,-0.19038,-0.243551,-0.343931,-0.452367,-0.502638,-0.590128,-0.685353,-0.732562,-0.858722,-0.921077,-0.979887,-1.069311,-1.11781,-1.140367,-1.14939,-1.171625,-1.177587,-1.167597,-1.152129,-1.174847,-1.186287,-1.152935,-1.156479,-1.173881,-1.191121,-1.177748,-1.168725,-1.165019,-1.203044,-1.197083,-1.188865,-1.17372,-1.185965,-1.2053,-1.190476,-1.177425,-1.184837,-1.19241,-1.215934,-1.197888,-1.18532,-1.172753,-1.199983,-1.209972,-1.208845,-1.209972,-1.190799,-1.187415,-1.183709,-1.197727,-1.199338,-1.224957,-1.220284,-1.203527,-1.220768,-1.179037,-1.202077,-1.197405,-1.191765,-1.203689,-1.207072,-1.200305,-1.198694,-1.185482,-1.213517,-1.216256,-1.203689,-1.20965,-1.222057,-1.209167,-1.221734,-1.213034,-1.194021,-1.195632,-1.211423,-1.213517,-1.200627,-1.227052,-1.188704,-1.194827,-1.197244,-1.21255,-1.223185,-1.187737,-1.187093,-1.206267,-1.214645,-1.214162,-1.193538,-1.195471,-1.214484,-1.191443,-1.178876,-1.207717,-1.18951,-1.187737,-1.191282,-1.19676,-1.186287,-1.178876,-1.186609,-1.169369,-1.18806,-1.17952,-1.172431,-1.175814,-1.177587,-1.179842,-1.172108,-1.182259,-1.157285,-1.181937,-1.17098,-1.17662,-1.165663,-1.163569,-1.16663,-1.16663,-1.152451,-1.146651,-1.167436,-1.1336,-1.144395,-1.126027,-1.126994,-1.103631,-1.086229,-1.105081,-1.082846,-1.067217,-1.043692,-1.068989,-1.034025,-1.052393,-1.028386,-1.02033,-1.044981,-1.002123,-1.005828,-0.996161,-1.003412,-1.007762,-1.011629,-0.985688,-0.979404,-1.010823,-0.942668,-0.972476,-0.969092,-0.959586,-0.986493,-0.983593,-0.958297,-0.954591,-0.943473,-0.967642,-0.960391,-0.933806,-0.941701,-0.912699,-0.918016,-0.909798,-0.910282,-0.90722,-0.904965,-0.874673,-0.8555,-0.875479,-0.860495,-0.828914,-0.853888,-0.817313,-0.792661,-0.818763,-0.801201,-0.779771,-0.779127,-0.770748,-0.74513,-0.771876,-0.731434,-0.757375,-0.724989,-0.768171,-0.747869,-0.724506,-0.72934,-0.734173,-0.702432,-0.698404,-0.7179,-0.703238,-0.663923,-0.68777,-0.679069,-0.65909,-0.664568,-0.65055,-0.646522,-0.639271,-0.583684,-0.594157,-0.579011,-0.553553,-0.5861,-0.522456,-0.53583,-0.516656,-0.501027,-0.488459,-0.479275,-0.446084,-0.446889,-0.473152,-0.385501,-0.431099,-0.425943,-0.397263,-0.387434,-0.405803,-0.377122,-0.397585,-0.385179,-0.375995,-0.392268,-0.374061,-0.3768,-0.383084,-0.372128,-0.384856,-0.364716,-0.361816,-0.375189,-0.347153,-0.348281,-0.366005,-0.317184,-0.342481,-0.34522,-0.310739,-0.341997,-0.328785,-0.328946,-0.306872,-0.330558,-0.303489,-0.319279,-0.341192,-0.291727,-0.335714,-0.315412,-0.303972,-0.327335,-0.298172,-0.307356,-0.330558,-0.294305,-0.31364,-0.332974,-0.297688,-0.281737,-0.322018,-0.310095,-0.299944,-0.304294,-0.312351,-0.303811,-0.29656,-0.289149,-0.308484,-0.293982,-0.280931,-0.320085,-0.269653,-0.280931,-0.298333,-0.28367,-0.282381,-0.295594,-0.269169,-0.295271,-0.291243,-0.260469,-0.296399,-0.277548,-0.263369,-0.281576,-0.29076,-0.265141,-0.268364,-0.279803,-0.268525,-0.29076,-0.241939,-0.246773,-0.269169,-0.262885,-0.251123,-0.248707,-0.236944,-0.261596,-0.214387,-0.230016,-0.275614,-0.211648,-0.245806,-0.253218,-0.236139,-0.239845,-0.248868,-0.255796,-0.247418,-0.261435,-0.243228,-0.238395,-0.275292,-0.252735,-0.264174,-0.247418,-0.259502,-0.268686,-0.283026,-0.266914,-0.267236,-0.278998,-0.28222,-0.298494,-0.279481,-0.30945,-0.28367,-0.285121,-0.308322,-0.300427,-0.301716,-0.315412,-0.323629,-0.327496,-0.326852,-0.323468,-0.315734,-0.356982,-0.342159,-0.340708,-0.359882,-0.353115,-0.364555,-0.396135,-0.389529,-0.393396,-0.419981,-0.366649,-0.391785,-0.356176,-0.384856,-0.408381,-0.362138,-0.355693,-0.381151,-0.358754,-0.335391,-0.374867,-0.320407,-0.345542,-0.35666,-0.344414,-0.319601,-0.334425,-0.3109,-0.326368,-0.332169,-0.295271,-0.309289,-0.294788,-0.305583,-0.317829,-0.288182,-0.311062,-0.31944,-0.307033,-0.302844,-0.302683,-0.304939,-0.307839,-0.34522,-0.317345,-0.344898,-0.339903,-0.321857,-0.337969,-0.350215,-0.30945,-0.354726,-0.347959,-0.336841,-0.377284,-0.363427,-0.381312,-0.379539,-0.38824,-0.398713,-0.367294,-0.368422,-0.385501,-0.369872,-0.378573,-0.392429,-0.378573,-0.371161,-0.390496,-0.367616,-0.380989,-0.390335,-0.380345,-0.384051,-0.405158,-0.361332,-0.375833,-0.407897,-0.364394,-0.393557,-0.398874,-0.389046,-0.393235,-0.381151,-0.396135,-0.42127,-0.364555,-0.380345,-0.418531,-0.353598,-0.395974,-0.418854,-0.399841,-0.425137,-0.453656,-0.41402,-0.449628,-0.453334,-0.453173,-0.474764,-0.461713,-0.470736,-0.497482,-0.463485,-0.519234,-0.487331,-0.493293,-0.509244,-0.53164,-0.515528,-0.502638,-0.561448,-0.531479,-0.544691,-0.552909,-0.554037,-0.561126,-0.582233,-0.560159,-0.57595,-0.552103,-0.55307,-0.615425,-0.569343,-0.582717,-0.574499,-0.56886,-0.604146,-0.601407,-0.575144,-0.581106,-0.575627,-0.559837,-0.591095,-0.592706,-0.576272,-0.603018,-0.589645,-0.589645,-0.593834,-0.60753,-0.616069,-0.623965,-0.628154,-0.596412,-0.647005,-0.611075,-0.664568,-0.63911,-0.640077,-0.674719,-0.652806,-0.666662,-0.662151,-0.671335,-0.642494,-0.692603,-0.661506,-0.667307,-0.673107,-0.679552,-0.680036,-0.670529,-0.678747,-0.681486,-0.66199,-0.682775,-0.699048,-0.67069,-0.666662,-0.691637,-0.655867,-0.688414,-0.675685,-0.658606,-0.671013,-0.682291,-0.658928,-0.673268,-0.668274,-0.638143,-0.666662,-0.649422,-0.677941,-0.650389,-0.672141,-0.650228,-0.649261,-0.645555,-0.637821,-0.664084,-0.623159,-0.669724,-0.643944,-0.646039,-0.6549,-0.650711,-0.639594,-0.661668,-0.629282,-0.606402,-0.642333,-0.599796,-0.618003,-0.615908,-0.612364,-0.59464,-0.592545,-0.578205,-0.561287,-0.574016,-0.564832,-0.559676,-0.549525,-0.521006,-0.538569,-0.500382,-0.50006,-0.494904,-0.492971,-0.510372,-0.48717,-0.468963,-0.492971,-0.507311,-0.484753,-0.542597,-0.477825,-0.486526,-0.511822,-0.512789,-0.502799,-0.506183,-0.491359,-0.481531,-0.514239,-0.477503,-0.491359,-0.482659,-0.503283,-0.504088,-0.46703,-0.464774,-0.487976,-0.48427,-0.469769,-0.479436,-0.458974,-0.438511,-0.478953,-0.4427,-0.439961,-0.450595,-0.44125,-0.443667,-0.4398,-0.42981,-0.424654,-0.414181,-0.426265,-0.427393,-0.412892,-0.420948,-0.392268,-0.421432,-0.408219,-0.419176,-0.413698,-0.412086,-0.418209,-0.394524,-0.406769,-0.440444,-0.43416,-0.43126,-0.439316,-0.412086,-0.427393,-0.430777,-0.442861,-0.450917,-0.428682,-0.46139,-0.448017,-0.456396,-0.457846,-0.464774,-0.455429,-0.466063,-0.462679,-0.428843,-0.494099,-0.484592,-0.446245,-0.503605,-0.477019,-0.47283,-0.483948,-0.485237,-0.453818,-0.510694,-0.48862,-0.458974,-0.516978,-0.477664,-0.514722,-0.487331,-0.514722,-0.517462,-0.510372,-0.513756,-0.511017,-0.532446,-0.520201,-0.535669,-0.52439,-0.532929,-0.558065,-0.526484,-0.549364,-0.563543,-0.529385,-0.579333,-0.596251,-0.553392,-0.557904,-0.569021,-0.550009,-0.580944,-0.559998,-0.562737,-0.564993,-0.575144,-0.562737,-0.580944,-0.586584,-0.548236,-0.593995,-0.539536,-0.586262,-0.572888,-0.571599,-0.589323,-0.581267,-0.563865,-0.586423,-0.572405,-0.577077,-0.588195,-0.538247,-0.580622,-0.578205,-0.53164,-0.572727,-0.588839,-0.549525,-0.557581,-0.562254,-0.546142,-0.555809,-0.559837,-0.539374,-0.559032,-0.547914,-0.537924,-0.539536,-0.536474,-0.529546,-0.552425,-0.519717,-0.516656,-0.531479,-0.525679,-0.56596,-0.523745,-0.551942,-0.540341,-0.506344,-0.517945,-0.506505,-0.519234,-0.550814,-0.521812,-0.511339,-0.523584,-0.513111,-0.498288,-0.532285,-0.519073,-0.491037,-0.509728,-0.526323,-0.500866,-0.509244,-0.501671,-0.509405,-0.499899,-0.47428,-0.510211,-0.479436,-0.470091,-0.478953,-0.460585,-0.442539,-0.44415,-0.484914,-0.423365,-0.454301,-0.428682,-0.431421,-0.413537,-0.437061,-0.408219,-0.408703,-0.40548,-0.424815,-0.429971,-0.375028,-0.407092,-0.408703,-0.403386,-0.426265,-0.377122,-0.393074,-0.418692,-0.409186,-0.396457,-0.425621,-0.419981,-0.402097,-0.449467,-0.418048,-0.417242,-0.433194,-0.443022,-0.436255,-0.46284,-0.424332,-0.440283,-0.487331,-0.450756,-0.480242,-0.473152,-0.486848,-0.487976,-0.47428,-0.475569,-0.484431,-0.452367,-0.485076,-0.487815,-0.444633,-0.444311,-0.423848,-0.409186,-0.3797,-0.382278,-0.361977,-0.342642,-0.338936,-0.302039,-0.288826,-0.283348,-0.228888,-0.24919,-0.200853,-0.167339,-0.144459,-0.135275,-0.104017,-0.072759,-0.048912,0.000875,0.021982,0.07322,0.104317,0.156521,0.166672,0.234022,0.265602,0.324735,0.387574,0.425438,0.476998,0.506806,0.54741,0.581568,0.617177,0.65778,0.695161,0.737215,0.777013,0.811332,0.845169,0.877072,0.902046,0.926537,0.955862,0.976486,1.000977,1.01709,1.037714,1.053665,1.076545,1.087985,1.106192,1.115698,1.124077,1.147279,1.148085,1.159363,1.174509,1.169353,1.187399,1.194811,1.196745,1.211568,1.20319,1.196584,1.190138,1.172254,1.140673,1.115054,1.068811,1.014834,0.973102,0.912841,0.842107,0.767345,0.687266,0.616854,0.536775,0.458146,0.369206,0.270758,0.184718,0.121557,0.017632,-0.033445,-0.114651,-0.212131,-0.274809,-0.349731,-0.445278,-0.470091,-0.51005,-0.589001,-0.6491,-0.669724,-0.724023,-0.764626,-0.778482,-0.81828,-0.827142,-0.845993,-0.868712,-0.886435,-0.888047,-0.916727,-0.913021,-0.908187,-0.909637,-0.886597,-0.866134,-0.825047,-0.778966,-0.741746,-0.67923,-0.652322,-0.602535,-0.572566,-0.531157,-0.488459,-0.430938,-0.39968,-0.426426,-0.358271,-0.34957,-0.309128,-0.295755,-0.309289,-0.281898,-0.277226,-0.267558,-0.249673,-0.26353,-0.26208,-0.211003,-0.258374,-0.224699,-0.235817,-0.264336,-0.222766,-0.216965,-0.237589,-0.238556,-0.220832,-0.247095,-0.210681,-0.204397,-0.232594,-0.211326,-0.218899,-0.215032,-0.246934,-0.237267,-0.226633,-0.231466,-0.239684,-0.227922,-0.232916,-0.272553,-0.225021,-0.225505,-0.25644,-0.243228,-0.24484,-0.275614,-0.252896,-0.23485,-0.287215,-0.252412,-0.257085,-0.258213,-0.262241,-0.282704,-0.283187,-0.276098,-0.297688,-0.294144,-0.3109,-0.311867,-0.305583,-0.326852,-0.304617,-0.331847,-0.353921,-0.334102,-0.368261,-0.368261,-0.368905,-0.387596,-0.401291,-0.382601,-0.391463,-0.421109,-0.405641,-0.416114,-0.424976,-0.414826,-0.426426,-0.460424,-0.422398,-0.424332,-0.445761,-0.451884,-0.462035,-0.448823,-0.476858,-0.481853,-0.452851,-0.473797,-0.486365,-0.467674,-0.486042,-0.482336,-0.459457,-0.493454,-0.478792,-0.477019,-0.496999,-0.49571,-0.46139,-0.493293,-0.488459,-0.466224,-0.508277,-0.485237,-0.511822,-0.504572,-0.502638,-0.522134,-0.509083,-0.500866,-0.524551,-0.498932,-0.519073,-0.553231,-0.496999,-0.541469,-0.523584,-0.522295,-0.542436,-0.53583,-0.538569,-0.569988,-0.567571,-0.561771,-0.569021,-0.566282,-0.571277,-0.589323,-0.576111,-0.5861,-0.599635,-0.578044,-0.592384,-0.617358,-0.586745,-0.623642,-0.634599,-0.605596,-0.642172,-0.633793,-0.634921,-0.63911,-0.650228,-0.658445,-0.657478,-0.647489,-0.644427,-0.662795,-0.641205,-0.646039,-0.649261,-0.662151,-0.633954,-0.667146,-0.641849,-0.653128,-0.672946,-0.650067,-0.686481,-0.6549,-0.661829,-0.688414,-0.668596,-0.695181,-0.713549,-0.683097,-0.696309,-0.716772,-0.70356,-0.710649,-0.72515,-0.715966,-0.725956,-0.724989,-0.736912,-0.725956,-0.722895,-0.721606,-0.723217,-0.720317,-0.715483,-0.735946,-0.68213,-0.709844,-0.703399,-0.672624,-0.693731,-0.670529,-0.657801,-0.672946,-0.664729,-0.681808,-0.66779,-0.652322,-0.661184,-0.677458,-0.678747,-0.692281,-0.689542,-0.701304,-0.710166,-0.727084,-0.728373,-0.746097,-0.763981,-0.741746,-0.766882,-0.770587,-0.759148,-0.780577,-0.78525,-0.778805,-0.774454,-0.774777,-0.762853,-0.777193,-0.768332,-0.760437,-0.769943,-0.757053,-0.756408,-0.751414,-0.75802,-0.752219,-0.777838,-0.753992,-0.739652,-0.76672,-0.743196,-0.767848,-0.757697,-0.755764,-0.761242,-0.751414,-0.742391,-0.752864,-0.740457,-0.742068,-0.769298,-0.715805,-0.745935,-0.753347,-0.726601,-0.751897,-0.757214,-0.752058,-0.747224,-0.764142,-0.767365,-0.771554,-0.779933,-0.767526,-0.784766,-0.75093,-0.779288,-0.780738,-0.771232,-0.76382,-0.753669,-0.742552,-0.760437,-0.754153,-0.711294,-0.762209,-0.72934,-0.724506,-0.730145,-0.725634,-0.70791,-0.729984,-0.709038,-0.68213,-0.704849,-0.683742,-0.699209,-0.685997,-0.684708,-0.678586,-0.680197,-0.674557,-0.685997,-0.671174,-0.673752,-0.705654,-0.647328,-0.681808,-0.690348,-0.651194,-0.68777,-0.682775,-0.658445,-0.677941,-0.649583,-0.669885,-0.688414,-0.684225,-0.6491,-0.692764,-0.655223,-0.658606,-0.662634,-0.675524,-0.659573,-0.670368,-0.647972,-0.652161,-0.66489,-0.652806,-0.671818,-0.652967,-0.663923,-0.667468,-0.6549,-0.641044,-0.658928,-0.659251,-0.643783,-0.662957,-0.636854,-0.653128,-0.666824,-0.662795,-0.668274,-0.69647,-0.70066,-0.686481,-0.7237,-0.726762,-0.746741,-0.740779,-0.734334,-0.765915,-0.748191,-0.771715,-0.770426,-0.759792,-0.781544,-0.788311,-0.782188,-0.780899,-0.797817,-0.78815,-0.803618,-0.813285,-0.810063,-0.814735,-0.817958,-0.810546,-0.820375,-0.827303,-0.807324,-0.837776,-0.82827,-0.819408,-0.831814,-0.826981,-0.831976,-0.840999,-0.842288,-0.833103,-0.843899,-0.839226,-0.838259,-0.863556,-0.851149,-0.850021,-0.859689,-0.872418,-0.87419,-0.884824,-0.889175,-0.893364,-0.891591,-0.889013,-0.910121,-0.897392,-0.916082,-0.907382,-0.90287,-0.922527,-0.918821,-0.914954,-0.921883,-0.925266,-0.917371,-0.93155,-0.933645,-0.9243,-0.940895,-0.942507,-0.946374,-0.947663,-0.954752,-0.94879,-0.958458,-0.954269,-0.964097,-0.974731,-0.963936,-0.974248,-0.964258,-0.973926,-0.980693,-0.983593,-0.97876,-0.990844,-0.981499,-0.981821,-0.997772,-0.982465,-0.991327,-1.003089,-0.998094,-1.002767,-1.000028,-1.012757,-1.019685,-1.01614,-1.020652,-1.030641,-1.030803,-1.027097,-1.044337,-1.029997,-1.045304,-1.044176,-1.030641,-1.038375,-1.044015,-1.040148,-1.023713,-1.05046,-1.036603,-1.048365,-1.042565,-1.053521,-1.056099,-1.059644,-1.066894,-1.071406,-1.065122,-1.073017,-1.090418,-1.0677,-1.0735,-1.08494,-1.085907,-1.076884,-1.091707,-1.08784,-1.090741,-1.093319,-1.092674,-1.093963,-1.100247,-1.104114,-1.095413,-1.075273,-1.087035,-1.08059,-1.077045,-1.079784,-1.082684,-1.072211,-1.073823,-1.091707,-1.0677,-1.088324,-1.091869,-1.082846,-1.083812,-1.091869,-1.073984,-1.091224,-1.089935,-1.084135,-1.100408,-1.095897,-1.090741,-1.093963,-1.104275,-1.10492,-1.111042,-1.124254,-1.123288,-1.118937,-1.113298,-1.120871,-1.133922,-1.11926,-1.126994,-1.119743,-1.114909,-1.126832,-1.127316,-1.108464,-1.130861,-1.127477,-1.116037,-1.139722,-1.120065,-1.117165,-1.109109,-1.107014,-1.096219,-1.085585,-1.081557,-1.091063,-1.07769,-1.073339,-1.086713,-1.056744,-1.069633,-1.079301,-1.058033,-1.049171,-1.055938,-1.031286,-1.037731,-1.042081,-1.030964,-1.023552,-1.020007,-1.014207,-1.029997,-1.010984,-1.014046,-1.002284,-1.013401,-1.014207,-1.02758,-1.026613,-1.02613,-1.044015,-1.017913,-1.070439,-1.062061,-1.075917,-1.0735,-1.08349,-1.086229,-1.098314,-1.107336,-1.109914,-1.123127,-1.114587,-1.109109,-1.115554,-1.110076,-1.12941,-1.128605,-1.121999,-1.121354,-1.123932,-1.134244,-1.135855,-1.127316,-1.139078,-1.136822,-1.121838,-1.125866,-1.125543,-1.141011,-1.121999,-1.139239,-1.130055,-1.124254,-1.143267,-1.119743,-1.144395,-1.139884,-1.126027,-1.142461,-1.135372,-1.132311,-1.143267,-1.151162,-1.137628,-1.158413,-1.144073,-1.147295,-1.144717,-1.1423,-1.144556,-1.151162,-1.150195,-1.148745,-1.149551,-1.143428,-1.152129,-1.15519,-1.165341,-1.16518,-1.152451,-1.158574,-1.157768,-1.154224,-1.16228,-1.169691,-1.159702,-1.165824,-1.173881,-1.161796,-1.181131,-1.169691,-1.165502,-1.177587,-1.193699,-1.17517,-1.191604,-1.185643,-1.189671,-1.19096,-1.167919,-1.190154,-1.17807,-1.174364,-1.19096,-1.168886,-1.171786,-1.189671,-1.18242,-1.184837,-1.196599,-1.187576,-1.190315,-1.196277,-1.196599,-1.200627,-1.200788,-1.204978,-1.185482,-1.180648,-1.181292,-1.17807,-1.196599,-1.183387,-1.211423,-1.216417,-1.194182,-1.204011,-1.181131,-1.188704,-1.210295,-1.213678,-1.225118,-1.214645,-1.19096,-1.183065,-1.199822,-1.198533,-1.211906,-1.218029,-1.199499,-1.189187,-1.202883,-1.205622,-1.209006,-1.202883,-1.184515,-1.204655,-1.204011,-1.204172,-1.198533,-1.191604,-1.220284,-1.219157,-1.194827,-1.199499,-1.220445,-1.198855,-1.21529,-1.198694,-1.223507,-1.217223,-1.203689,-1.207717,-1.22689,-1.221896,-1.211261,-1.225279,-1.223346,-1.212228,-1.223346,-1.226729,-1.22689,-1.206428,-1.210939,-1.230596,-1.214806,-1.187898,-1.227052,-1.228824,-1.208361,-1.224151,-1.224151,-1.204978,-1.208845,-1.231724,-1.2053,-1.225279,-1.197405,-1.20675,-1.229468,-1.175653,-1.222218,-1.219962,-1.199983,-1.228502,-1.20675,-1.2082,-1.230435,-1.205622
 18:35:51.23877,-1.231563,-1.224635,-1.210939,-1.23108,-1.201916,-1.230274,-1.207878,-1.217062,-1.227857,-1.19676,-1.232208,-1.208683,-1.218673,-1.229146,-1.202561,-1.24977,-1.205461,-1.223185,-1.209811,-1.228824,-1.241069,-1.228018,-1.238008,-1.201433,-1.241714,-1.204011,-1.220607,-1.228502,-1.218834,-1.236558,-1.224474,-1.239942,-1.205622,-1.241069,-1.212712,-1.240747,-1.224957,-1.23543,-1.217223,-1.227857,-1.224796,-1.231241,-1.209328,-1.220929,-1.229791,-1.22109,-1.221251,-1.229791,-1.205461,-1.218673,-1.209811,-1.206105,-1.173397,-1.197727,-1.158735,-1.155351,-1.120549,-1.070761,-1.045465,-0.955397,-0.941379,-0.907382,-0.797334,-0.781866,-0.73949,-0.644427,-0.579978,-0.533896,-0.456396,-0.404997,-0.339581,-0.281737,-0.222927,-0.153321,-0.126413,-0.07872,-0.024905,0.01312,0.031811,0.086432,0.087076,0.088527,0.156521,0.132514,0.160871,0.178917,0.147498,0.160227,0.16635,0.146209,0.138959,0.138797,0.092394,0.098516,0.048568,0.053401,-0.010404,-0.030061,-0.056969,-0.107884,-0.152676,-0.181518,-0.243873,-0.298494,-0.34087,-0.395491,-0.499416,-0.544853,-0.613491,-0.715483,-0.781383,-0.864684,-1.008729,-1.049493,-1.164052,-1.200466,-1.193216,-1.220768,-1.189832,-1.208683,-1.218029,-1.22399,-1.225118,-1.244775,-1.217868,-1.185159,-1.218029,-1.205783,-1.218834,-1.233658,-1.237041,-1.216095,-1.210939,-1.204816,-1.234302,-1.242197,-1.211423,-1.230919,-1.224635,-1.242681,-1.228663,-1.212389,-1.244614,-1.229952,-1.218351,-1.239942,-1.231402,-1.217545,-1.246548,-1.237364,-1.213195,-1.259438,-1.211423,-1.221412,-1.237525,-1.215934,-1.241392,-1.227857,-1.230274,-1.210778,-1.237847,-1.229307,-1.240264,-1.251865,-1.230274,-1.250576,-1.232691,-1.238814,-1.236236,-1.238169,-1.214806,-1.240908,-1.209006,-1.243003,-1.238491,-1.248964,-1.250576,-1.235591,-1.235591,-1.249126,-1.247192,-1.218512,-1.250576,-1.247353,-1.2111,-1.259921,-1.235269,-1.254765,-1.236397,-1.217868,-1.257343,-1.239458,-1.231402,-1.251542,-1.243647,-1.230113,-1.257826,-1.23253,-1.247675,-1.252831,-1.22399,-1.231885,-1.240103,-1.219801,-1.229791,-1.266688,-1.231241,-1.231724,-1.251059,-1.237525,-1.238814,-1.236236,-1.234786,-1.251059,-1.228018,-1.259276,-1.26266,-1.217706,-1.241069,-1.242519,-1.240425,-1.233658,-1.222701,-1.237686,-1.240425,-1.249287,-1.22109,-1.230274,-1.257504,-1.222701,-1.243325,-1.235591,-1.245259,-1.239136,-1.242519,-1.224635,-1.23978,-1.232369,-1.25686,-1.238169,-1.225279,-1.245581,-1.242681,-1.251704,-1.241714,-1.218512,-1.236719,-1.256537,-1.242519,-1.242842,-1.237364,-1.22544,-1.223346,-1.251059,-1.240103,-1.236075,-1.220445,-1.230113,-1.209811,-1.226246,-1.206911,-1.22399,-1.226407,-1.212873,-1.231724,-1.218834,-1.230596,-1.226568,-1.224151,-1.227535,-1.222862,-1.220445,-1.218512,-1.233174,-1.200627,-1.235752,-1.230757,-1.207072,-1.223185,-1.226729,-1.183387,-1.225118,-1.214967,-1.203366,-1.234786,-1.203689,-1.204011,-1.224635,-1.18951,-1.217545,-1.207394,-1.208361,-1.194343,-1.206267,-1.204816,-1.192732,-1.216901,-1.177587,-1.197244,-1.181937,-1.193538,-1.182904,-1.188543,-1.172914,-1.171786,-1.166791,-1.173881,-1.180809,-1.136661,-1.17952,-1.141011,-1.126349,-1.147134,-1.127316,-1.115393,-1.121676,-1.091063,-1.10073,-1.116521,-1.071889,-1.095736,-1.092835,-1.098797,-1.094608,-1.114909,-1.112976,-1.111526,-1.115876,-1.111042,-1.117648,-1.12796,-1.11926,-1.133277,-1.108948,-1.118937,-1.111848,-1.117487,-1.13215,-1.124093,-1.095252,-1.096058,-1.089452,-1.063994,-1.09348,-1.057549,-1.056421,-1.033381,-1.044337,-1.013401,-1.018235,-1.012596,-0.964903,-0.997933,-0.93864,-0.933484,-0.96732,-0.923333,-0.938801,-0.927039,-0.922205,-0.924461,-0.893042,-0.934289,-0.916888,-0.882085,-0.911571,-0.90722,-0.900292,-0.903837,-0.910443,-0.907543,-0.906737,-0.937834,-0.933967,-0.932839,-0.932356,-0.926555,-0.972476,-0.965225,-0.966353,-0.963131,-0.952496,-0.953624,-0.955235,-0.962003,-0.953785,-0.950241,-0.914954,-0.953946,-0.922205,-0.906898,-0.95153,-0.9301,-0.915921,-0.914149,-0.906254,-0.876768,-0.909798,-0.895136,-0.852599,-0.865167,-0.871934,-0.843577,-0.840354,-0.814252,-0.820214,-0.827625,-0.810063,-0.816347,-0.79814,-0.768493,-0.782994,-0.779449,-0.764948,-0.754797,-0.752864,-0.746902,-0.736751,-0.735785,-0.697276,-0.73224,-0.698082,-0.727406,-0.710005,-0.699371,-0.716289,-0.726439,-0.709521,-0.742068,-0.735623,-0.728534,-0.775421,-0.747224,-0.762048,-0.771232,-0.755119,-0.772521,-0.765593,-0.76237,-0.753508,-0.767526,-0.76382,-0.77671,-0.785894,-0.782511,-0.791695,-0.774615,-0.784605,-0.781544,-0.768976,-0.770265,-0.797173,-0.760437,-0.758986,-0.785894,-0.727084,-0.778321,-0.768493,-0.751897,-0.766237,-0.759309,-0.757214,-0.766882,-0.752864,-0.750608,-0.745291,-0.734657,-0.75657,-0.727567,-0.726278,-0.736429,-0.71935,-0.689864,-0.683258,-0.691153,-0.671496,-0.688253,-0.678263,-0.622353,-0.668274,-0.623642,-0.603502,-0.596573,-0.604791,-0.559998,-0.596251,-0.566121,-0.529062,-0.550975,-0.51585,-0.52294,-0.526807,-0.514561,-0.505699,-0.487492,-0.46703,-0.484431,-0.446889,-0.435772,-0.475086,-0.459135,-0.43835,-0.468963,-0.407736,-0.447856,-0.439639,-0.424493,-0.433677,-0.421593,-0.382601,-0.438994,-0.413698,-0.416759,-0.427877,-0.406769,-0.402419,-0.408542,-0.427554,-0.395329,-0.413698,-0.409508,-0.396457,-0.413859,-0.389046,-0.405319,-0.397263,-0.410959,-0.412892,-0.383406,-0.393235,-0.372289,-0.353598,-0.362138,-0.384695,-0.358432,-0.32089,-0.338614,-0.322018,-0.33088,-0.327013,-0.354565,-0.337486,-0.318796,-0.308967,-0.34377,-0.325079,-0.303972,-0.329913,-0.312512,-0.303972,-0.335714,-0.305744,-0.308645,-0.319279,-0.267397,-0.312512,-0.330558,-0.281576,-0.317668,-0.297688,-0.280448,-0.293821,-0.308967,-0.284315,-0.284154,-0.268525,-0.245484,-0.279965,-0.239845,-0.257568,-0.240489,-0.225827,-0.218899,-0.229533,-0.215515,-0.186996,-0.18039,-0.199564,-0.209392,-0.150099,-0.175073,-0.172978,-0.172173,-0.179745,-0.189413,-0.174106,-0.198919,-0.201014,-0.191185,-0.218415,-0.200369,-0.188124,-0.216965,-0.201819,-0.195374,-0.203914,-0.193119,-0.183129,-0.222121,-0.164922,-0.158155,-0.210842,-0.13592,-0.156221,-0.15606,-0.147037,-0.141559,-0.146876,-0.145104,-0.144298,-0.123352,-0.155738,-0.164116,-0.132375,-0.138498,-0.118357,-0.102728,-0.116585,-0.109012,-0.124641,-0.125124,-0.12158,-0.090644,-0.124963,-0.112557,-0.099828,-0.137209,-0.103856,-0.084199,-0.122063,-0.093383,-0.076465,-0.109173,-0.09016,-0.072275,-0.116585,-0.058258,-0.079043,-0.064542,-0.077754,-0.082104,-0.117551,-0.097733,-0.081621,-0.111429,-0.08726,-0.113201,-0.074209,-0.075176,-0.099667,-0.082749,-0.086938,-0.108206,-0.077754,-0.093866,-0.106112,-0.07147,-0.098539,-0.087905,-0.048429,-0.090966,-0.064058,-0.04859,-0.044723,-0.041017,-0.030222,-0.011854,-0.008793,0.015537,0.006998,0.039223,0.029233,0.04309,0.043412,0.05469,0.042284,0.063391,0.060813,0.068708,0.061297,0.050018,0.068547,0.048246,0.041639,0.075637,0.040995,0.048407,0.05743,0.072092,0.035517,0.041962,0.062424,0.033905,0.041317,0.039223,0.04035,0.030844,0.021499,0.015376,0.029716,-0.005248,-0.005892,0.017793,-0.033767,0.019888,-0.046979,-0.04714,-0.010082,-0.058741,-0.063897,-0.053263,-0.073887,-0.102083,-0.072437,-0.090483,-0.109979,-0.086777,-0.095961,-0.1045,-0.137853,-0.109173,-0.119002,-0.115457,-0.12158,-0.126413,-0.135275,-0.149132,-0.148971,-0.156866,-0.150099,-0.135436,-0.152676,-0.159444,-0.149776,-0.160733,-0.152515,-0.153804,-0.172495,-0.174589,-0.153643,-0.158799,-0.190702,-0.157671,-0.162827,-0.188607,-0.151871,-0.172495,-0.158155,-0.187963,-0.188929,-0.158638,-0.181679,-0.168144,-0.169595,-0.172817,-0.174267,-0.156866,-0.18039,-0.159605,-0.15026,-0.186513,-0.144459,-0.168144,-0.191024,-0.155577,-0.138659,-0.172817,-0.155738,-0.148971,-0.153643,-0.142042,-0.165728,-0.123191,-0.159927,-0.160733,-0.125285,-0.163955,-0.142687,-0.152032,-0.196502,-0.153965,-0.168306,-0.202947,-0.19328,-0.191185,-0.216159,-0.186029,-0.201014,-0.205847,-0.177167,-0.161699,-0.203108,-0.136886,-0.144459,-0.173784,-0.089838,-0.147682,-0.118035,-0.090483,-0.112718,-0.089032,-0.073081,-0.11304,-0.083554,-0.073564,-0.101439,-0.088227,-0.083876,-0.094188,-0.094672,-0.080332,-0.11159,-0.105789,-0.099505,-0.107884,-0.10015,-0.125447,-0.128347,-0.104178,-0.160733,-0.117551,-0.139948,-0.153965,-0.137047,-0.157671,-0.20617,-0.18764,-0.196986,-0.204881,-0.160572,-0.200047,-0.231144,-0.199403,-0.20327,-0.213904,-0.192152,-0.235172,-0.226149,-0.206331,-0.232916,-0.222443,-0.195052,-0.211648,-0.179262,-0.210037,-0.195697,-0.187963,-0.194085,-0.190057,-0.167017,-0.181518,-0.211003,-0.158638,-0.167822,-0.173623,-0.184096,-0.155899,-0.166533,-0.161055,-0.169595,-0.158477,-0.155093,-0.196019,-0.132536,-0.162183,-0.188929,-0.164439,-0.170561,-0.198758,-0.159444,-0.166694,-0.173462,-0.220349,-0.201658,-0.186029,-0.216159,-0.222282,-0.202464,-0.248062,-0.242423,-0.241778,-0.284637,-0.303811,-0.268847,-0.3051,-0.338614,-0.30365,-0.385984,-0.374383,-0.383567,-0.413053,-0.421915,-0.413859,-0.456557,-0.418209,-0.418209,-0.459457,-0.390818,-0.405964,-0.38534,-0.397585,-0.34667,-0.350698,-0.322824,-0.290599,-0.278676,-0.262241,-0.248545,-0.201336,-0.168144,-0.154449,-0.126091,-0.095316,-0.063414,-0.030544,0.006998,0.03745,0.069353,0.114145,0.161838,0.236922,0.233378,0.288965,0.32538,0.357282,0.407231,0.43575,0.466042,0.498911,0.528558,0.5632,0.605737,0.643279,0.680982,0.725614,0.761706,0.79667,0.832118,0.85967,0.887222,0.917031,0.939588,0.961985,0.984542,1.002749,1.025951,1.036586,1.059143,1.072678,1.088629,1.096363,1.112154,1.124077,1.129394,1.147118,1.150179,1.158719,1.167742,1.173865,1.180632,1.195939,1.195939,1.205929,1.217208,1.204479,1.229937,1.219302,1.228003,1.23187,1.213502,1.202706,1.173381,1.132294,1.087501,1.048831,0.985187,0.921703,0.853547,0.752683,0.691616,0.608154,0.493272,0.426405,0.338431,0.225644,0.155877,0.070964,-0.032478,-0.083071,-0.200208,-0.243389,-0.342964,-0.422559,-0.46139,-0.534218,-0.603341,-0.654417,-0.709682,-0.74948,-0.777838,-0.824725,-0.845671,-0.860495,-0.888369,-0.891914,-0.916566,-0.934612,-0.922688,-0.937512,-0.94444,-0.937351,-0.928811,-0.911571,-0.849699,-0.805068,-0.732884,-0.630732,-0.558387,-0.473636,-0.379378,-0.302844,-0.237428,-0.139625,-0.077915,0.026816,0.053563,0.097872,0.167478,0.265602,0.270597,0.336336,0.385157,0.390957,0.481187,0.452507,0.511479,0.535647,0.536453,0.560783,0.62475,0.582213,0.604126,0.612504,0.630389,0.653591,0.674376,0.656491,0.669865,0.671798,0.671637,0.671476,0.688233,0.666964,0.686622,0.662453,0.633934,0.660358,0.629583,0.628778,0.621688,0.585113,0.579635,0.583018,0.543704,0.564972,0.556916,0.509867,0.523402,0.532425,0.51164,0.478609,0.496011,0.485376,0.461047,0.484088,0.47297,0.480865,0.431077,0.448801,0.460724,0.426727,0.448479,0.441228,0.423182,0.402397,0.452507,0.414965,0.421893,0.416415,0.380645,0.416093,0.410453,0.401914,0.372428,0.391763,0.390152,0.372589,0.35986,0.384351,0.383707,0.32828,0.399497,0.358894,0.354865,0.373717,0.372428,0.356316,0.372428,0.360988,0.355188,0.342298,0.352287,0.390796,0.337303,0.353254,0.381773,0.354543,0.367433,0.366628,0.35116,0.31684,0.351321,0.357605,0.307817,0.335531,0.312329,0.318129,0.334564,0.31249,0.303789,0.305722,0.301694,0.311201,0.300405,0.27817,0.301372,0.279137,0.289288,0.286226,0.257385,0.244495,0.284132,0.259641,0.257868,0.258835,0.227577,0.250296,0.254324,0.219682,0.204214,0.243528,0.21936,0.200508,0.202603,0.190196,0.215493,0.204858,0.192452,0.206147,0.163772,0.201797,0.19793,0.166833,0.178917,0.175373,0.139925,0.164094,0.199864,0.13767,0.172956,0.163611,0.157004,0.16071,0.172795,0.167639,0.167639,0.147498,0.159744,0.178917,0.143148,0.174889,0.139442,0.123491,0.181818,0.153138,0.135736,0.182946,0.151849,0.149109,0.156038,0.157166,0.132675,0.168928,0.148465,0.149754,0.144598,0.148465,0.132997,0.147176,0.131547,0.135897,0.128485,0.101739,0.108506,0.115596,0.105606,0.131547,0.096099,0.087721,0.100611,0.081115,0.078376,0.087882,0.072898,0.028588,0.057913,0.039061,0.045184,0.055496,0.078376,0.030361,0.04599,0.023432,0.041962,0.050985,0.016021,0.052918,0.023755,0.036645,0.043573,0.010059,0.043573,0.028266,0.014893,0.058074,0.014248,0.027138,0.049857,0.034067,0.023916,0.046151,0.04035,0.030522,0.058719,0.02601,0.001197,0.060169,0.016182,0.016665,0.04035,0.026494,0.053079,0.043251,0.030038,0.028266,0.033905,0.02456,0.035033,0.03165,0.020854,0.052918,0.017793,0.024399,0.047279,0.03165,0.039545,0.037128,0.044379,0.039706,0.057913,0.024077,0.038578,0.053401,0.023593,0.064358,0.062586,0.052596,0.061619,0.050179,0.030361,0.047923,0.053401,0.025688,0.033583,0.037289,0.033905,0.043573,0.071286,0.054207,0.035678,0.041478,0.042928,0.073703,0.039223,0.052918,0.041801,0.050823,0.052596,0.041156,0.065002,0.060491,0.025205,0.074348,0.064519,0.037772,0.079826,0.0389,0.042606,0.044056,0.018115,0.025527,0.04309,0.022949,0.024721,0.031327,0.004903,-0.028611,0.031327,-0.03135,-0.027644,-0.017815,-0.031994,-0.045045,-0.034411,-0.047946,-0.04424,-0.047462,-0.055196,-0.026516,-0.074692,-0.034734,-0.044723,-0.052941,-0.033606,-0.054874,-0.05568,-0.052296,-0.033122,-0.064542,-0.046334,-0.047462,-0.068247,-0.055357,-0.035539,-0.058902,-0.082426,-0.061319,-0.072437,-0.080009,-0.095961,-0.067603,-0.073403,-0.094994,-0.090966,-0.11739,-0.117713,-0.082587,-0.090483,-0.112073,-0.090483,-0.077593,-0.127219,-0.092416,-0.110301,-0.08436,-0.089838,-0.07727,-0.117229,-0.084682,-0.102406,-0.09435,-0.089516,-0.110623,-0.086454,-0.134308,-0.12883,-0.11739,-0.164761,-0.141398,-0.134792,-0.161861,-0.156543,-0.185224,-0.198275,-0.182001,-0.181518,-0.213098,-0.20762,-0.210037,-0.206814,-0.22051,-0.210359,-0.232594,-0.239845,-0.233239,-0.252735,-0.238395,-0.261274,-0.248384,-0.260791,-0.266269,-0.258535,-0.269653,-0.274325,-0.241617,-0.258213,-0.276903,-0.223249,-0.293016,-0.275937,-0.261113,-0.274325,-0.261758,-0.254185,-0.287054,-0.269653,-0.259663,-0.279642,-0.282381,-0.232594,-0.288504,-0.270136,-0.269008,-0.287376,-0.281576,-0.259663,-0.315573,-0.291243,-0.291082,-0.34667,-0.30655,-0.350215,-0.335552,-0.368905,-0.378411,-0.393718,-0.380667,-0.407253,-0.402419,-0.391946,-0.425621,-0.415792,-0.425299,-0.4427,-0.447211,-0.410153,-0.440766,-0.426749,-0.431421,-0.4427,-0.421593,-0.448823,-0.432066,-0.436416,-0.453656,-0.414826,-0.445922,-0.423365,-0.422237,-0.424976,-0.413053,-0.411442,-0.400808,-0.432066,-0.370516,-0.378895,-0.388079,-0.375511,-0.380506,-0.382278,-0.359077,-0.358915,-0.368583,-0.385501,-0.380667,-0.345864,-0.374867,-0.372128,-0.328785,-0.366649,-0.353276,-0.346187,-0.341836,-0.364233,-0.349248,-0.326852,-0.374383,-0.337647,-0.336841,-0.337164,-0.360366,-0.338775,-0.322179,-0.316862,-0.348765,-0.305261,-0.324596,-0.368583,-0.287215,-0.329591,-0.350215,-0.338292,-0.35521,-0.360527,-0.344253,-0.350054,-0.358915,-0.356015,-0.370355,-0.37245,-0.3681,-0.364071,-0.361493,-0.358593,-0.378734,-0.377928,-0.39259,-0.373255,-0.337808,-0.382117,-0.381312,-0.352148,-0.393718,-0.33523,-0.366166,-0.381634,-0.363749,-0.376639,-0.379539,-0.350698,-0.364071,-0.387757,-0.338453,-0.369227,-0.340225,-0.350537,-0.325402,-0.341675,-0.334102,-0.330235,-0.309289,-0.317507,-0.34522,-0.303972,-0.302683,-0.329269,-0.302361,-0.304294,-0.317184,-0.302522,-0.306389,-0.297366,-0.301877,-0.321535,-0.313962,-0.328463,-0.335069,-0.324757,-0.361493,-0.364877,-0.375995,-0.349409,-0.380023,-0.388562,-0.369066,-0.393557,-0.359077,-0.375189,-0.367294,-0.376478,-0.371966,-0.352309,-0.344253,-0.370194,-0.340225,-0.362944,-0.407092,-0.361816,-0.388401,-0.390818,-0.379056,-0.43126,-0.456718,-0.448823,-0.4456,-0.463646,-0.445117,-0.473152,-0.497643,-0.504572,-0.511661,-0.512144,-0.52294,-0.517462,-0.523584,-0.500382,-0.520362,-0.489909,-0.509405,-0.526001,-0.481209,-0.51295,-0.486687,-0.500221,-0.50006,-0.483948,-0.455751,-0.458329,-0.453495,-0.452851,-0.471058,-0.420948,-0.426265,-0.423204,-0.405803,-0.40113,-0.387273,-0.398713,-0.371805,-0.368261,-0.358915,-0.363749,-0.33668,-0.35521,-0.364394,-0.321857,-0.34812,-0.361655,-0.34522,-0.380023,-0.344092,-0.348442,-0.358915,-0.361171,-0.36101,-0.394846,-0.38824,-0.386468,-0.409347,-0.399519,-0.377767,-0.432066,-0.42546,-0.407092,-0.45704,-0.433033,-0.450434,-0.446889,-0.463163,-0.472669,-0.449467,-0.466224,-0.461713,-0.47573,-0.479759,-0.497804,-0.468319,-0.481047,-0.478792,-0.428521,-0.466869,-0.467352,-0.457201,-0.458651,-0.473636,-0.441411,-0.461874,-0.448823,-0.429971,-0.455751,-0.404514,-0.416276,-0.424171,-0.395007,-0.426588,-0.474925,-0.443667,-0.459296,-0.486687,-0.460585,-0.513595,-0.490393,-0.524873,-0.555487,-0.560804,-0.561771,-0.605596,-0.603502,-0.621387,-0.640399,-0.625737,-0.646844,-0.66779,-0.645877,-0.670207,-0.683258,-0.694698,-0.682775,-0.69647,-0.680197,-0.700337,-0.689059,-0.69212,-0.701787,-0.675846,-0.693892,-0.688253,-0.66634,-0.674074,-0.667951,-0.653128,-0.66054,-0.67633,-0.640238,-0.657639,-0.656834,-0.653934,-0.651194,-0.664407,-0.641849,-0.680197,-0.683903,-0.661829,-0.701787,-0.68922,-0.676813,-0.704849,-0.691798,-0.70646,-0.704849,-0.705332,-0.702915,-0.702915,-0.689864,-0.688575,-0.701304,-0.672141,-0.655061,-0.635888,-0.640238,-0.60898,-0.595768,-0.579333,-0.573855,-0.542436,-0.535185,-0.545175,-0.499093,-0.544853,-0.531318,-0.524873,-0.533574,-0.532446,-0.549525,-0.582717,-0.578528,-0.61043,-0.645394,-0.625898,-0.665212,-0.685675,-0.685514,-0.70211,-0.723056,-0.736751,-0.732884,-0.751091,-0.754314,-0.763659,-0.767526,-0.759953,-0.771715,-0.761887,-0.768654,-0.769459,-0.762209,-0.760437,-0.76672,-0.741746,-0.735946,-0.742391,-0.716289,-0.719833,-0.710971,-0.702593,-0.675202,-0.673268,-0.643622,-0.637499,-0.62622,-0.589484,-0.611236,-0.534218,-0.550331,-0.533252,-0.448017,-0.463646,-0.416276,-0.350537,-0.344253,-0.278353,-0.224699,-0.210198,-0.159766,-0.085327,-0.05149,0.017471,0.073864,0.149754,0.169411,0.253035,0.292994,0.37275,0.436233,0.472003,0.546765,0.569,0.631033,0.685171,0.719974,0.7551,0.770729,0.792481,0.815361,0.828089,0.842591,0.858864,0.864504,0.870465,0.875138,0.871593,0.875621,0.87256,0.857898,0.839207,0.825995,0.793125,0.741726,0.749299,0.685494,0.654558,0.621044,0.573028,0.539192,0.48731,0.396758,0.355832,0.262541,0.208564,0.158293,0.066936,-0.007181,-0.09725,-0.162344,-0.24919,-0.344092,-0.420626,-0.513272,-0.574177,-0.681969,-0.739813,-0.798301,-0.84406,-0.878702,-0.902226,-0.9301,-0.912054,-0.944279,-0.960875,-0.96877,-0.976182,-0.988588,-0.976504,-0.998256,-0.992938,-0.981821,-0.942668,-0.902226,-0.846799,-0.764626,-0.714033,-0.656512,-0.586584,-0.521329,-0.485398,-0.453979,-0.38389,-0.394685,-0.353759,-0.326368,-0.303972,-0.291243,-0.267397,-0.276903,-0.278676,-0.264497,-0.285443,-0.269169,-0.284959,-0.304778,-0.308484,-0.292855,-0.343609,-0.339258,-0.32943,-0.388079,-0.380667,-0.390657,-0.41837,-0.400324,-0.448339,-0.446245,-0.456557,-0.496354,-0.476214,-0.483625,-0.512306,-0.495388,-0.502638,-0.54163,-0.510855,-0.515045,-0.531157,-0.516495,-0.5144,-0.573049,-0.542758,-0.53728,-0.601246,-0.55452,-0.582072,-0.582556,-0.599957,-0.614619,-0.624448,-0.645072,-0.657156,-0.686481,-0.691959,-0.70211,-0.681325,-0.720317,-0.721606,-0.719672,-0.728856,-0.747386,-0.725956,-0.739813,-0.764626,-0.716127,-0.751414,-0.752058,-0.744324,-0.75802,-0.723056,-0.749641,-0.750608,-0.754797,-0.754314,-0.740779,-0.746258,-0.737879,-0.766559,-0.746902,-0.776871,-0.768976,-0.785089,-0.792017,-0.797656,-0.784444,-0.821825,-0.819247,-0.794111,-0.831814,-0.80684,-0.834876,-0.853566,-0.830042,-0.855016,-0.860978,-0.867584,-0.865328,-0.875801,-0.880957,-0.890786,-0.91141,-0.903354,-0.912215,-0.91431,-0.922366,-0.920272,-0.93864,-0.930261,-0.94879,-0.951368,-0.950724,-0.967159,-0.954269,-0.964258,-0.967481
