 18:29:16.54120,-1.02323,-1.042404,-0.98311,-1.02033,-1.024841,-1.004056,-1.030319,-1.010179,-1.012757,-1.032414,-1.024196,-1.028386,-1.05481,-1.050299,-1.052071,-1.054166,-1.065605,-1.056744,-1.077045,-1.069795,-1.076884,-1.088807,-1.092191,-1.089452,-1.088485,-1.09493,-1.095091,-1.078012,-1.088646,-1.092352,-1.07624,-1.088485,-1.095091,-1.080751,-1.092513,-1.094769,-1.069956,-1.087035,-1.090418,-1.097025,-1.099925,-1.086551,-1.098958,-1.102825,-1.102503,-1.117004,-1.11926,-1.129088,-1.146651,-1.128766,-1.133277,-1.145039,-1.127799,-1.132311,-1.136661,-1.126994,-1.130538,-1.138433,-1.123932,-1.133922,-1.130055,-1.13795,-1.109109,-1.126671,-1.130861,-1.128283,-1.134728,-1.144556,-1.146006,-1.143589,-1.149712,-1.143589,-1.161313,-1.163246,-1.159218,-1.159218,-1.171625,-1.159218,-1.167758,-1.184354,-1.156479,-1.185159,-1.177909,-1.169047,-1.18097,-1.173236,-1.171947,-1.166952,-1.177264,-1.185159,-1.189026,-1.175975,-1.200305,-1.176136,-1.175331,-1.185643,-1.177909,-1.201272,-1.196438,-1.190799,-1.165986,-1.197083,-1.189026,-1.204655,-1.196116,-1.191765,-1.180648,-1.210295,-1.185643,-1.174203,-1.191765,-1.187737,-1.209489,-1.191604,-1.205139,-1.196438,-1.195471,-1.18806,-1.201272,-1.19676,-1.203205,-1.198855,-1.203527,-1.211584,-1.177425,-1.224957,-1.197405,-1.193377,-1.211584,-1.208683,-1.199016,-1.220445,-1.189026,-1.216095,-1.21674,-1.193377,-1.226407,-1.17807,-1.208039,-1.220607,-1.204816,-1.200949,-1.210456,-1.194666,-1.208039,-1.212389,-1.204333,-1.198855,-1.210778,-1.21255,-1.202561,-1.223346,-1.191765,-1.2111,-1.202077,-1.204172,-1.222057,-1.197405,-1.210939,-1.22689,-1.201755,-1.216579,-1.20965,-1.199338,-1.202722,-1.213034,-1.195471,-1.240103,-1.175492,-1.229146,-1.217223,-1.205622,-1.205783,-1.201755,-1.215612,-1.198533,-1.213034,-1.222379,-1.230596,-1.199177,-1.218834,-1.224957,-1.199822,-1.228663,-1.210456,-1.230757,-1.210939,-1.223829,-1.219962,-1.225279,-1.214162,-1.204011,-1.218512,-1.204011,-1.211745,-1.212873,-1.209328,-1.204172,-1.202883,-1.204978,-1.204816,-1.187093,-1.203205,-1.202722,-1.194988,-1.200788,-1.205461,-1.201272,-1.2024,-1.204494,-1.206105,-1.214323,-1.181937,-1.187254,-1.205783,-1.192893,-1.192732,-1.19676,-1.199177,-1.196277,-1.201433,-1.204816,-1.198694,-1.208361,-1.205622,-1.187093,-1.191765,-1.210939,-1.211745,-1.204494,-1.189349,-1.220929,-1.206911,-1.210617,-1.198049,-1.205139,-1.210778,-1.207556,-1.212067,-1.196116,-1.204978,-1.198049,-1.203366,-1.194827,-1.2053,-1.18532,-1.181615,-1.218351,-1.190476,-1.19821,-1.186126,-1.181292,-1.197566,-1.196438,-1.174686,-1.196116,-1.201916,-1.179359,-1.205944,-1.172592,-1.181615,-1.17952,-1.17952,-1.177264,-1.180648,-1.161313,-1.164052,-1.186448,-1.144073,-1.159057,-1.148262,-1.149873,-1.142461,-1.160185,-1.135372,-1.151968,-1.151646,-1.128283,-1.136017,-1.127477,-1.15664,-1.127155,-1.138433,-1.151646,-1.122643,-1.112976,-1.144073,-1.105725,-1.091707,-1.130216,-1.074789,-1.111365,-1.09928,-1.105886,-1.07769,-1.076723,-1.052554,-1.051426,-1.04192,-1.016463,-1.054488,-1.024035,-1.031769,-0.995516,-1.007923,-0.990038,-0.979082,-0.960391,-0.988427,-0.969092,-0.947018,-1.016624,-0.949757,-0.962325,-0.964258,-0.956847,-0.949274,-0.982304,-0.950724,-0.952013,-0.950241,-0.935901,-0.957169,-0.92285,-0.952819,-0.910765,-0.914149,-0.928328,-0.909154,-0.892236,-0.946374,-0.889819,-0.888208,-0.891591,-0.847121,-0.878379,-0.862267,-0.869034,-0.852599,-0.841965,-0.857272,-0.847282,-0.815219,-0.82263,-0.828431,-0.816024,-0.817797,-0.830203,-0.841482,-0.818763,-0.823275,-0.802168,-0.811835,-0.80249,-0.783638,-0.811996,-0.796367,-0.807163,-0.778644,-0.783316,-0.804423,-0.798462,-0.770748,-0.792178,-0.781383,-0.762853,-0.816508,-0.755925,-0.785733,-0.765754,-0.789761,-0.792822,-0.772843,-0.759792,-0.787022,-0.769137,-0.784283,-0.799267,-0.73224,-0.787828,-0.763981,-0.761887,-0.778966,-0.770426,-0.764142,-0.765109,-0.763981,-0.755925,-0.784766,-0.768815,-0.7896,-0.768976,-0.773004,-0.793145,-0.80539,-0.763659,-0.817313,-0.792822,-0.772199,-0.823597,-0.80974,-0.820052,-0.79814,-0.811835,-0.833265,-0.816185,-0.800556,-0.830687,-0.828109,-0.834231,-0.857111,-0.823758,-0.844543,-0.834392,-0.823758,-0.828592,-0.835037,-0.826014,-0.835359,-0.818441,-0.816024,-0.84116,-0.812963,-0.841965,-0.796689,-0.840193,-0.827464,-0.803134,-0.826981,-0.845027,-0.798945,-0.792178,-0.795078,-0.791372,-0.83262,-0.803779,-0.801362,-0.798462,-0.804262,-0.801201,-0.794273,-0.807001,-0.805229,-0.790406,-0.792178,-0.817958,-0.777355,-0.799267,-0.815541,-0.796528,-0.754797,-0.777193,-0.777032,-0.738846,-0.77236,-0.748191,-0.761242,-0.719028,-0.761242,-0.763176,-0.748513,-0.721445,-0.741585,-0.735301,-0.734496,-0.7237,-0.735462,-0.759631,-0.72789,-0.76527,-0.754636,-0.751091,-0.768976,-0.766398,-0.751897,-0.773971,-0.747224,-0.756247,-0.775904,-0.737074,-0.755603,-0.783961,-0.785411,-0.765915,-0.767526,-0.751252,-0.750608,-0.78815,-0.754475,-0.771554,-0.764626,-0.770748,-0.778321,-0.791211,-0.781222,-0.752864,-0.761403,-0.772843,-0.788794,-0.782349,-0.780738,-0.747547,-0.790567,-0.784605,-0.774132,-0.79105,-0.80684,-0.782672,-0.827625,-0.804585,-0.786055,-0.848088,-0.804907,-0.829075,-0.826497,-0.807968,-0.826659,-0.843577,-0.822147,-0.854372,-0.845349,-0.801845,-0.835843,-0.807485,-0.817958,-0.823114,-0.806357,-0.790406,-0.807646,-0.797334,-0.768815,-0.786378,-0.758342,-0.77526,-0.753025,-0.757697,-0.773649,-0.763337,-0.755603,-0.805229,-0.74658,-0.786216,-0.796689,-0.754636,-0.831653,-0.80829,-0.819891,-0.857433,-0.850021,-0.84986,-0.883535,-0.889819,-0.894975,-0.93445,-0.909476,-0.95153,-0.911249,-0.950563,-0.94734,-0.920594,-0.946212,-0.945246,-0.923011,-0.942507,-0.929939,-0.924139,-0.909798,-0.889819,-0.897553,-0.882407,-0.880313,-0.857594,-0.884502,-0.847605,-0.833265,-0.848894,-0.843738,-0.838743,-0.810385,-0.810385,-0.826659,-0.80104,-0.793467,-0.825208,-0.802651,-0.791856,-0.827786,-0.781222,-0.82537,-0.810063,-0.816185,-0.811835,-0.830687,-0.820052,-0.846155,-0.821825,-0.835843,-0.848249,-0.835037,-0.876446,-0.853727,-0.855339,-0.858561,-0.854211,-0.864523,-0.893686,-0.895781,-0.889336,-0.907543,-0.90142,-0.915438,-0.891914,-0.935095,-0.90577,-0.923977,-0.94879,-0.975859,-0.943151,-0.987782,-1.026613,-0.981338,-1.013401,-1.025485,-1.030319,-1.037409,-1.062061,-1.045304,-1.06625,-1.066411,-1.044981,-1.06335,-1.04192,-1.057227,-1.029191,-1.032092,-1.040953,-0.999222,-1.010018,-1.011629,-0.941862,-0.961519,-0.962164,-0.911249,-0.944762,-0.892558,-0.906737,-0.874029,-0.863717,-0.841965,-0.838582,-0.793789,-0.741585,-0.775904,-0.707588,-0.704527,-0.671013,-0.64201,-0.574822,-0.554842,-0.522295,-0.484431,-0.418692,-0.341997,-0.353276,-0.228083,-0.16605,-0.132053,-0.057291,-0.023133,0.031166,0.127841,0.155877,0.219843,0.307334,0.335853,0.405942,0.429305,0.461047,0.499072,0.529847,0.562394,0.598647,0.632484,0.666642,0.700639,0.730931,0.764123,0.789097,0.815844,0.839529,0.85677,0.879005,0.89399,0.903013,0.917997,0.923959,0.924765,0.936527,0.930565,0.922831,0.922025,0.898501,0.877716,0.847747,0.816005,0.772018,0.725453,0.634578,0.598808,0.523724,0.483121,0.403042,0.289127,0.237889,0.134608,0.02456,-0.028933,-0.133825,-0.257407,-0.298494,-0.430777,-0.531318,-0.602052,-0.723861,-0.810224,-0.878379,-0.96587,-1.018074,-1.050782,-1.05916,-1.033058,-1.068989,-1.071889,-1.08494,-1.071567,-1.071406,-1.07624,-1.086874,-1.078495,-1.088163,-1.102825,-1.094608,-1.107659,-1.107175,-1.123449,-1.117326,-1.120226,-1.11926,-1.118293,-1.114426,-1.106692,-1.112654,-1.12071,-1.151646,-1.143428,-1.137306,-1.130216,-1.12941,-1.149551,-1.156963,-1.130699,-1.13215,-1.150679,-1.155996,-1.166469,-1.147295,-1.130861,-1.162602,-1.166791,-1.158252,-1.157768,-1.138433,-1.165341,-1.184193,-1.156802,-1.16083,-1.148262,-1.147295,-1.150518,-1.175975,-1.171303,-1.156802,-1.162441,-1.146006,-1.151646,-1.14649,-1.152129,-1.158896,-1.172269,-1.172592,-1.172269,-1.167919,-1.170175,-1.165502,-1.144878,-1.168241,-1.158413,-1.149229,-1.154224,-1.147295,-1.150518,-1.15084,-1.142461,-1.148584,-1.138272,-1.142623,-1.16518,-1.128927,-1.15519,-1.154385,-1.142461,-1.147295,-1.146167,-1.138756,-1.1423,-1.15229,-1.146651,-1.153096,-1.142623,-1.141334,-1.157124,-1.147295,-1.148745,-1.154707,-1.157124,-1.138272,-1.141978,-1.147779,-1.142945,-1.126994,-1.14375,-1.145201,-1.125543,-1.139239,-1.144395,-1.121838,-1.136339,-1.144073,-1.117165,-1.146006,-1.119904,-1.131666,-1.142139,-1.144556,-1.138111,-1.14375,-1.131344,-1.146006,-1.1336,-1.12796,-1.146328,-1.122321,-1.129733,-1.116359,-1.138272,-1.144234,-1.116682,-1.129249,-1.128121,-1.123288,-1.131505,-1.13215,-1.116037,-1.126027,-1.130377,-1.120226,-1.124738,-1.128927,-1.120871,-1.125543,-1.129894,-1.125221,-1.127316,-1.106209,-1.117165,-1.111203,-1.09493,-1.097186,-1.103953,-1.083973,-1.093802,-1.104597,-1.070439,-1.095736,-1.086713,-1.074467,-1.087035,-1.068344,-1.076884,-1.07205,-1.072695,-1.072211,-1.071728,-1.052071,-1.038053,-1.040631,-1.052071,-1.026452,-1.03193,-1.035959,-1.01614,-1.018718,-1.027258,-1.00889,-0.989233,-1.008729,-0.982143,-0.97876,-1.0047,-0.962003,-0.972153,-0.979243,-0.968448,-0.955558,-0.981015,-0.951046,-0.981015,-0.973442,-0.957008,-0.967964,-0.950885,-0.972315,-0.96877,-0.939606,-0.947985,-0.95153,-0.941862,-0.973765,-0.95298,-0.953141,-0.981499,-0.919949,-0.921561,-0.938156,-0.938479,-0.934612,-0.926878,-0.95878,-0.949274,-0.909637,-0.927522,-0.934128,-0.907704,-0.9243,-0.917694,-0.909154,-0.893364,-0.934128,-0.903031,-0.928811,-0.914632,-0.895781,-0.910121,-0.902226,-0.880796,-0.914954,-0.89707,-0.87709,-0.894814,-0.857433,-0.879991,-0.877735,-0.878218,-0.876768,-0.875962,-0.894169,-0.882085,-0.867745,-0.881118,-0.872901,-0.848249,-0.900453,-0.882246,-0.862428,-0.871451,-0.859367,-0.877896,-0.862267,-0.874512,-0.849538,-0.842932,-0.873223,-0.875962,-0.873384,-0.849216,-0.859528,-0.852116,-0.852277,-0.855177,-0.854855,-0.85985,-0.880796,-0.860172,-0.8613,-0.887563,-0.85985,-0.878863,-0.879829,-0.858078,-0.868067,-0.879507,-0.872095,-0.88128,-0.856628,-0.863717,-0.870323,-0.867745,-0.912215,-0.85405,-0.902065,-0.916082,-0.900614,-0.88998,-0.907059,-0.893525,-0.906898,-0.927039,-0.911249,-0.931872,-0.911893,-0.920916,-0.928972,-0.93719,-0.908832,-0.954913,-0.937834,-0.93719,-0.95153,-0.920433,-0.943635,-0.948468,-0.920272,-0.920433,-0.919627,-0.900131,-0.942507,-0.900776,-0.911249,-0.921399,-0.878863,-0.899487,-0.907543,-0.877735,-0.893364,-0.886274,-0.868228,-0.877735,-0.875318,-0.884824,-0.875962,-0.859206,-0.892397,-0.843738,-0.875962,-0.880152,-0.8584,-0.873062,-0.90142,-0.87129,-0.883374,-0.906898,-0.900614,-0.903354,-0.875962,-0.913021,-0.918983,-0.919305,-0.912538,-0.952013,-0.923011,-0.919788,-0.968448,-0.908509,-0.95588,-0.956202,-0.947824,-0.959425,-0.988749,-0.953463,-0.966031,-0.958297,-0.953946,-0.978276,-0.931389,-0.979243,-0.990522,-0.971187,-0.990844,-0.981982,-0.988588,-0.991649,-0.989716,-0.977954,-1.009856,-0.984882,-1.005989,-1.005828,-0.992777,-0.998417,-0.993744,-0.997611,-0.994227,-0.992777,-0.993583,-1.013401,-0.985366,-0.994389,-0.995355,-1.001156,-0.995678,-1.005184,-0.982627,-1.024358,-1.029514,-0.998417,-1.034347,-1.004862,-1.036442,-1.023391,-1.043692,-1.056421,-1.04192,-1.053682,-1.075112,-1.062544,-1.0706,-1.090257,-1.049493,-1.073662,-1.072856,-1.070439,-1.066089,-1.062866,-1.052877,-1.064961,-1.040148,-1.035314,-1.072211,-1.014368,-1.032575,-1.031608,-1.04337,-1.007117,-1.022585,-1.021941,-0.997772,-1.013079,-0.9989,-1.006473,-0.988588,-0.991166,-1.005506,-1.020652,-0.994389,-0.994389,-0.995678,-1.000028,-1.006956,-0.996,-1.016946,-0.983593,-0.989877,-0.992777,-0.943473,-0.968448,-0.96877,-0.961036,-0.958458,-0.96442,-0.966997,-0.992455,-0.961197,-0.98021,-0.977148,-0.968125,-0.986493,-0.973442,-0.979726,-1.0018,-1.01614,-1.017429,-1.033703,-1.013079,-1.022908,-1.038537,-1.047882,-1.045626,-1.050137,-1.052393,-1.056099,-1.050621,-1.063511,-1.077851,-1.057871,-1.052393,-1.076562,-1.060772,-1.071084,-1.072373,-1.063188,-1.072534,-1.063027,-1.071084,-1.088807,-1.057227,-1.07205,-1.093319,-1.085585,-1.085907,-1.096219,-1.095091,-1.089774,-1.101214,-1.112331,-1.113137,-1.118615,-1.118615,-1.119421,-1.114265,-1.11926,-1.118937,-1.11362,-1.117326,-1.12361,-1.131827,-1.128766,-1.136661,-1.109914,-1.137467,-1.125382,-1.12506,-1.133761,-1.134083,-1.124254,-1.146973,-1.132311,-1.149068,-1.12941,-1.143106,-1.152451,-1.138272,-1.15229,-1.155835,-1.154062,-1.175331,-1.163891,-1.156318,-1.168241,-1.164697,-1.155351,-1.157768,-1.153579,-1.155513,-1.145684,-1.17098,-1.162441,-1.15664,-1.164858,-1.170014,-1.171142,-1.167758,-1.17807,-1.157124,-1.165019,-1.168402,-1.160507,-1.151968,-1.173881,-1.147779,-1.167597,-1.159541,-1.164535,-1.184354,-1.151646,-1.174525,-1.171464,-1.17807,-1.17098,-1.189349,-1.155513,-1.178231,-1.171142,-1.171947,-1.191765,-1.175653,-1.173397,-1.181453,-1.178714,-1.168241,-1.162602,-1.179037,-1.17807,-1.175331,-1.170336,-1.188382,-1.17372,-1.172753,-1.171625,-1.190315,-1.176459,-1.192571,-1.175331,-1.183709,-1.172753,-1.174525,-1.198694,-1.163569,-1.181131,-1.191282,-1.171947,-1.174203,-1.197083,-1.151323,-1.181776,-1.194988,-1.150357,-1.18097,-1.169208,-1.179198,-1.188543,-1.165824,-1.175009,-1.179359,-1.17517,-1.176942,-1.17952,-1.177909,-1.187254,-1.165824,-1.18951,-1.185643,-1.181292,-1.176942,-1.194827,-1.190154,-1.173075,-1.200144,-1.186609,-1.186126,-1.184998,-1.184031,-1.176298,-1.191765,-1.176298,-1.19096,-1.182098,-1.191282,-1.192893,-1.178876,-1.190799,-1.185965,-1.18242,-1.194021,-1.197566,-1.160668,-1.19821,-1.187093,-1.19386,-1.196599,-1.172108,-1.211906,-1.174364,-1.194988,-1.194827,-1.178231,-1.2024,-1.211261,-1.178392,-1.196277,-1.195149,-1.190799,-1.189349,-1.182098,-1.201916,-1.187737,-1.210617,-1.187093,-1.204494,-1.183226,-1.19676,-1.200305,-1.194988,-1.191121,-1.189993,-1.204816,-1.198049,-1.214967,-1.183065,-1.215451,-1.192249,-1.191604,-1.209489,-1.202238,-1.202238,-1.205139,-1.191604,-1.217868,-1.199822,-1.191121,-1.195955,-1.191121,-1.2053,-1.205139,-1.196277,-1.218029,-1.191443,-1.219318,-1.187737,-1.199016,-1.197888,-1.216256,-1.194827,-1.214967,-1.212228,-1.200305,-1.221251,-1.191765,-1.210939,-1.203366,-1.204011,-1.204333,-1.210778,-1.194182,-1.211423,-1.205783,-1.199983,-1.219157,-1.200788,-1.207072,-1.209328,-1.215451,-1.196438,-1.224635,-1.202722,-1.210456,-1.217545,-1.202077,-1.212067,-1.192249,-1.208845,-1.208361,-1.199661,-1.207717,-1.212067,-1.205622,-1.209972,-1.206589,-1.197566,-1.207717,-1.210456,-1.208522,-1.197727,-1.225924,-1.213517,-1.213839,-1.207394,-1.204655,-1.217062,-1.197083,-1.21964,-1.194021,-1.217545,-1.219479,-1.199983,-1.206105,-1.21819,-1.206911,-1.213195,-1.213517,-1.207556,-1.204494,-1.217062,-1.204816,-1.204172,-1.199016,-1.205783,-1.21674,-1.209006,-1.211423,-1.203689,-1.193699,-1.216579,-1.180165,-1.195632,-1.202722,-1.201594,-1.196921,-1.206267,-1.201433,-1.209489,-1.192893,-1.194343,-1.188704,-1.200788,-1.199338,-1.180326,-1.196116,-1.205622,-1.176781,-1.201111,-1.192571,-1.186609,-1.18242,-1.185804,-1.175331,-1.181131,-1.17662,-1.177264,-1.171947,-1.15938,-1.170014,-1.167436,-1.160991,-1.162763,-1.155029,-1.144234,-1.171625,-1.172431,-1.13505,-1.121676,-1.141656,-1.099764,-1.112331,-1.11781,-1.10492,-1.112654,-1.088485,-1.106047,-1.088324,-1.068183,-1.103469,-1.08059,-1.067378,-1.102825,-1.059805,-1.064961,-1.046754,-1.032414,-1.029191,-1.053038,-1.035636,-1.020491,-1.02903,-1.008084,-1.024358,-1.018235,-1.007601,-1.008729,-1.01034,-1.003573,-0.990683,-0.993905,-1.002767,-0.991166,-0.954591,-1.011629,-0.990844,-0.954752,-0.995839,-0.993744,-0.965547,-0.971992,-0.979887,-0.970864,-0.982949,-0.96732,-0.979887,-0.976987,-0.960391,-0.965386,-0.951368,-0.96732,-0.959747,-0.945407,-0.975859,-0.951691,-0.937028,-0.971187,-0.944118,-0.954752,-0.960391,-0.946857,-0.989233,-0.951852,-0.980693,-0.956363,-0.941218,-0.943312,-0.936867,-0.958619,-0.940412,-0.949113,-0.938317,-0.95733,-0.955074,-0.949918,-0.942668,-0.952496,-0.943151,-0.940895,-0.935739,-0.916566,-0.948629,-0.92285,-0.918338,-0.938156,-0.951046,-0.935739,-0.934934,-0.93445,-0.939768,-0.933967,-0.913504,-0.937028,-0.903998,-0.924461,-0.919627,-0.91866,-0.903998,-0.929617,-0.897714,-0.913182,-0.926394,-0.889658,-0.902226,-0.883535,-0.905448,-0.887724,-0.897875,-0.898198,-0.8613,-0.855983,-0.851149,-0.873062,-0.822308,-0.864362,-0.857111,-0.828753,-0.836165,-0.839065,-0.805551,-0.842126,-0.802329,-0.80394,-0.81828,-0.787828,-0.838421,-0.804262,-0.824403,-0.813446,-0.812963,-0.823275,-0.854372,-0.806357,-0.836809,-0.877413,-0.80974,-0.895136,-0.879507,-0.860333,-0.902709,-0.890302,-0.888208,-0.90996,-0.905287,-0.917855,-0.920916,-0.902065,-0.961519,-0.896103,-0.910604,-0.900453,-0.913182,-0.90142,-0.90432,-0.893042,-0.884824,-0.892075,-0.858883,-0.878863,-0.879346,-0.880635,-0.842288,-0.863234,-0.858239,-0.862106,-0.853566,-0.848894,-0.842449,-0.804423,-0.852761,-0.842932,-0.823114,-0.849377,-0.839387,-0.819408,-0.830687,-0.787505,-0.801362,-0.817313,-0.771232,-0.802973,-0.801845,-0.764948,-0.795723,-0.783638,-0.749802,-0.76672,-0.769782,-0.74513,-0.76092,-0.743519,-0.764948,-0.733529,-0.764465,-0.758664,-0.745291,-0.73804,-0.741585,-0.738363,-0.748997,-0.790083,-0.744485,-0.753992,-0.790889,-0.767848,-0.77091,-0.787667,-0.760275,-0.785894,-0.780255,-0.794434,-0.804907,-0.774777,-0.813446,-0.795078,-0.808129,-0.821986,-0.825531,-0.811835,-0.838904,-0.81683,-0.829398,-0.872579,-0.803457,-0.847121,-0.832298,-0.839871,-0.85405,-0.849216,-0.832137,-0.859044,-0.8613,-0.842449,-0.870162,-0.841482,-0.872257,-0.876124,-0.904481,-0.893847,-0.898681,-0.921238,-0.912376,-0.90577,-0.939606,-0.931228,-0.920916,-0.952819,-0.926233,-0.945246,-0.960875,-0.963775,-0.920594,-0.947824,-0.923977,-0.905287,-0.939284,-0.901742,-0.913021,-0.907704,-0.890464,-0.881118,-0.918821,-0.873546,-0.910443,-0.882569,-0.866295,-0.894814,-0.846316,-0.886597,-0.846477,-0.867745,-0.858722,-0.850183,-0.848088,-0.846477,-0.826497,-0.821019,-0.843738,-0.78815,-0.828753,-0.779127,-0.802651,-0.810224,-0.80394,-0.806196,-0.834231,-0.81248,-0.827625,-0.848894,-0.834715,-0.863395,-0.842288,-0.857433,-0.850988,-0.831492,-0.847605,-0.855177,-0.830687,-0.829881,-0.842288,-0.806035,-0.836809,-0.823919,-0.81538,-0.790567,-0.81538,-0.770748,-0.795078,-0.777193,-0.751091,-0.74803,-0.744969,-0.780255,-0.737718,-0.724989,-0.725312,-0.738201,-0.726278,-0.772682,-0.735462,-0.733207,-0.775904,-0.740457,-0.797978,-0.793467,-0.802812,-0.794756,-0.822792,-0.804423,-0.823275,-0.836326,-0.846799,-0.874673,-0.846316,-0.89997,-0.897553,-0.915921,-0.923172,-0.931872,-0.929456,-0.962325,-0.954108,-0.955074,-0.97602,-0.932678,-0.95298,-0.94734,-0.916405,-0.926233,-0.930745,-0.888852,-0.88563,-0.853405,-0.840354,-0.855983,-0.804907,-0.782833,-0.767043,-0.75383,-0.751736,-0.751736,-0.705493,-0.697437,-0.663118,-0.654256,-0.704204,-0.595929,-0.619936,-0.582233,-0.556131,-0.534541,-0.501027,-0.452851,-0.397746,-0.366166,-0.348603,-0.3051,-0.212615,-0.205042,-0.147521,-0.087743,-0.003798,0.06178,0.088043,0.149271,0.221777,0.277526,0.327797,0.382579,0.426083,0.457341,0.49311,0.528397,0.556916,0.593975,0.630711,0.66342,0.700156,0.732864,0.76654,0.793609,0.819872,0.848069,0.864826,0.882872,0.907202,0.914291,0.922348,0.934754,0.932982,0.936205,0.938944,0.929115,0.915258,0.89689,0.880455,0.851775,0.793286,0.771534,0.709018,0.658264,0.602998,0.547087,0.466686,0.408681,0.334403,0.226771,0.153138,0.078215,-0.009759,-0.081782,-0.206009,-0.285121,-0.343931,-0.451562,-0.534702,-0.610913,-0.701949,-0.768976,-0.850988,-0.916243,-0.977793,-1.008084,-1.03193,-1.055455,-1.04047,-1.047559,-1.070922,-1.045143,-1.049332,-1.055938,-1.064155,-1.075917,-1.070761,-1.068506,-1.072211,-1.072534,-1.084779,-1.092191,-1.094124,-1.096541,-1.108787,-1.119582,-1.114909,-1.123771,-1.121676,-1.12506,-1.117004,-1.107175,-1.107175,-1.102019,-1.133116,-1.144878,-1.148262,-1.138595,-1.134566,-1.11926,-1.130216,-1.160668
 18:29:17.54125,-1.145201,-1.134405,-1.140367,-1.137306,-1.146973,-1.169208,-1.163408,-1.149551,-1.137467,-1.13795,-1.150679,-1.16808,-1.173881,-1.162441,-1.14085,-1.15229,-1.147779,-1.148423,-1.169853,-1.186126,-1.156479,-1.163569,-1.152773,-1.15519,-1.148745,-1.163891,-1.170336,-1.172592,-1.164858,-1.165502,-1.171464,-1.151484,-1.162763,-1.158735,-1.15374,-1.156479,-1.141978,-1.166469,-1.166308,-1.164374,-1.176459,-1.171303,-1.163569,-1.17372,-1.153418,-1.16518,-1.163891,-1.161313,-1.167113,-1.16808,-1.157929,-1.150034,-1.16953,-1.15519,-1.162924,-1.165019,-1.166469,-1.158896,-1.163246,-1.16083,-1.171303,-1.156157,-1.144878,-1.164697,-1.13505,-1.149551,-1.154062,-1.152773,-1.147295,-1.155351,-1.155674,-1.154062,-1.151001,-1.151646,-1.172431,-1.159218,-1.162924,-1.158252,-1.162441,-1.167275,-1.145362,-1.142945,-1.164535,-1.155996,-1.14939,-1.174364,-1.146812,-1.164858,-1.153418,-1.160346,-1.165663,-1.164858,-1.172108,-1.17098,-1.144717,-1.154224,-1.164697,-1.145523,-1.170819,-1.168564,-1.171786,-1.159863,-1.167113,-1.177587,-1.166147,-1.177264,-1.178392,-1.181615,-1.173558,-1.177103,-1.154062,-1.162763,-1.159702,-1.162602,-1.170497,-1.176942,-1.172592,-1.168241,-1.178392,-1.151323,-1.160024,-1.165019,-1.177587,-1.147295,-1.156157,-1.161313,-1.161796,-1.144717,-1.147779,-1.169853,-1.130377,-1.151646,-1.156318,-1.138433,-1.136178,-1.151323,-1.127155,-1.143106,-1.127638,-1.131022,-1.148584,-1.1394,-1.155029,-1.143106,-1.149873,-1.143428,-1.149551,-1.136822,-1.150679,-1.145845,-1.137467,-1.170175,-1.12216,-1.145523,-1.148423,-1.156157,-1.132794,-1.147779,-1.133277,-1.141978,-1.141334,-1.133761,-1.160668,-1.131988,-1.172269,-1.143589,-1.138433,-1.167113,-1.163569,-1.140367,-1.158091,-1.15084,-1.144556,-1.167597,-1.135855,-1.164213,-1.142139,-1.153096,-1.137789,-1.144717,-1.159218,-1.143267,-1.134728,-1.144073,-1.148423,-1.12361,-1.151484,-1.121032,-1.121032,-1.110881,-1.116521,-1.106047,-1.097186,-1.086551,-1.094447,-1.125221,-1.085424,-1.097991,-1.109109,-1.112976,-1.086068,-1.112654,-1.112976,-1.125221,-1.117971,-1.12506,-1.135211,-1.123771,-1.137628,-1.133761,-1.122804,-1.145845,-1.141817,-1.127155,-1.150679,-1.146973,-1.150679,-1.152612,-1.144234,-1.147295,-1.122643,-1.15374,-1.140689,-1.139722,-1.138433,-1.148584,-1.128766,-1.128927,-1.143428,-1.10927,-1.130216,-1.132633,-1.115554,-1.128283,-1.145362,-1.127155,-1.12796,-1.117165,-1.122804,-1.1336,-1.083329,-1.10218,-1.095252,-1.077851,-1.059322,-1.052393,-1.016463,-1.031608,-0.983754,-0.97167,-0.971831,-0.899809,-0.956041,-0.928167,-0.905287,-0.888852,-0.888047,-0.89707,-0.883374,-0.856144,-0.878218,-0.916082,-0.872901,-0.911249,-0.875157,-0.914471,-0.878057,-0.901581,-0.895297,-0.879185,-0.906576,-0.87854,-0.899487,-0.871451,-0.875479,-0.846155,-0.879507,-0.862267,-0.856789,-0.847605,-0.868551,-0.850666,-0.853888,-0.87854,-0.842771,-0.862911,-0.839387,-0.874351,-0.868067,-0.870645,-0.872095,-0.898842,-0.879507,-0.870001,-0.925589,-0.883052,-0.921077,-0.902709,-0.92011,-0.925105,-0.929939,-0.962647,-0.953624,-0.923494,-0.953624,-0.970542,-0.91431,-0.963131,-0.952657,-0.949435,-0.950402,-0.953785,-0.936545,-0.938962,-0.969575,-0.949757,-0.971187,-0.952496,-0.970381,-0.950724,-0.939929,-0.950563,-0.906898,-0.906415,-0.90996,-0.871934,-0.856144,-0.869356,-0.785733,-0.816347,-0.797656,-0.777516,-0.767365,-0.784766,-0.769943,-0.759309,-0.723217,-0.7208,-0.737557,-0.678908,-0.725956,-0.689703,-0.719189,-0.704688,-0.692926,-0.71935,-0.730145,-0.685836,-0.679069,-0.709682,-0.693892,-0.716933,-0.7208,-0.702271,-0.705977,-0.744646,-0.728212,-0.722572,-0.731595,-0.711616,-0.765109,-0.723861,-0.733207,-0.763981,-0.751897,-0.747547,-0.766398,-0.748997,-0.755603,-0.740779,-0.754314,-0.77236,-0.714516,-0.768171,-0.752219,-0.721606,-0.74803,-0.715483,-0.711938,-0.741102,-0.73079,-0.696793,-0.741746,-0.690831,-0.70211,-0.688092,-0.719028,-0.681647,-0.688897,-0.708716,-0.704849,-0.690348,-0.682614,-0.708877,-0.687286,-0.701626,-0.676813,-0.715322,-0.702593,-0.712422,-0.681808,-0.708877,-0.713388,-0.691959,-0.739168,-0.690831,-0.711294,-0.734012,-0.734334,-0.73804,-0.744163,-0.734334,-0.743357,-0.755442,-0.781383,-0.807807,-0.760275,-0.812963,-0.80829,-0.830687,-0.854694,-0.824886,-0.821825,-0.865489,-0.860978,-0.859367,-0.886758,-0.861622,-0.888852,-0.867423,-0.906576,-0.884824,-0.893203,-0.886919,-0.89143,-0.907704,-0.899648,-0.95443,-0.919305,-0.92285,-0.942829,-0.946857,-0.907704,-0.940251,-0.917855,-0.910765,-0.911087,-0.908187,-0.930583,-0.898359,-0.924622,-0.934128,-0.935578,-0.93864,-0.959586,-0.951368,-0.977954,-0.985043,-0.966997,-1.017752,-0.9989,-1.012596,-1.048848,-1.046754,-1.058033,-1.071728,-1.079462,-1.086068,-1.072373,-1.080912,-1.088968,-1.066089,-1.095897,-1.09638,-1.088807,-1.092352,-1.094447,-1.098636,-1.092835,-1.084296,-1.080107,-1.099441,-1.075434,-1.101536,-1.097025,-1.102825,-1.09783,-1.100892,-1.103469,-1.114748,-1.124416,-1.111203,-1.14375,-1.11362,-1.136178,-1.135211,-1.123771,-1.125866,-1.137467,-1.12651,-1.128444,-1.131022,-1.131666,-1.145523,-1.106209,-1.133277,-1.14085,-1.116682,-1.131666,-1.141334,-1.12651,-1.130861,-1.126994,-1.129249,-1.131022,-1.098152,-1.139561,-1.112331,-1.120226,-1.117165,-1.117004,-1.114748,-1.112492,-1.117004,-1.121676,-1.12651,-1.109914,-1.12506,-1.134083,-1.115232,-1.121838,-1.129249,-1.116037,-1.109914,-1.124577,-1.116682,-1.123288,-1.113943,-1.116843,-1.114265,-1.105081,-1.125382,-1.108787,-1.11072,-1.126832,-1.119743,-1.126671,-1.135694,-1.120871,-1.136178,-1.127477,-1.102342,-1.136178,-1.131827,-1.126349,-1.138272,-1.14794,-1.139078,-1.136178,-1.163408,-1.132794,-1.15664,-1.149873,-1.151968,-1.133116,-1.146006,-1.148745,-1.150034,-1.144556,-1.15938,-1.141172,-1.136017,-1.162602,-1.146328,-1.145039,-1.161152,-1.153579,-1.139884,-1.155674,-1.145684,-1.152935,-1.135372,-1.121193,-1.138272,-1.112976,-1.121354,-1.118454,-1.098797,-1.115232,-1.097669,-1.107659,-1.114104,-1.123288,-1.104275,-1.123449,-1.103308,-1.112492,-1.124254,-1.132311,-1.128766,-1.13505,-1.141656,-1.127638,-1.169691,-1.138756,-1.161313,-1.137789,-1.16083,-1.159218,-1.145684,-1.156963,-1.166952,-1.144073,-1.149229,-1.158091,-1.131827,-1.165824,-1.14085,-1.144878,-1.158413,-1.154868,-1.165986,-1.160024,-1.172753,-1.160024,-1.163085,-1.156479,-1.177264,-1.138272,-1.158091,-1.162119,-1.157124,-1.1423,-1.162924,-1.15374,-1.148745,-1.152935,-1.145039,-1.149712,-1.145039,-1.152612,-1.140689,-1.131505,-1.118615,-1.128927,-1.129572,-1.129894,-1.116037,-1.090418,-1.129733,-1.11926,-1.09783,-1.118293,-1.130699,-1.109431,-1.144717,-1.115876,-1.113781,-1.151162,-1.116037,-1.143267,-1.134405,-1.128927,-1.132311,-1.155674,-1.132794,-1.148262,-1.145523,-1.144717,-1.155996,-1.148262,-1.164697,-1.131183,-1.153418,-1.154868,-1.155835,-1.151484,-1.165341,-1.144073,-1.131666,-1.174364,-1.139239,-1.143589,-1.153418,-1.135211,-1.129572,-1.153579,-1.122804,-1.143589,-1.109592,-1.100892,-1.133922,-1.075112,-1.125221,-1.111848,-1.074467,-1.105886,-1.091707,-1.078979,-1.095091,-1.102664,-1.087035,-1.126994,-1.067539,-1.102825,-1.080751,-1.088646,-1.09493,-1.106531,-1.088807,-1.099441,-1.073178,-1.091385,-1.100892,-1.061255,-1.101053,-1.087357,-1.081396,-1.095736,-1.116843,-1.110398,-1.117165,-1.12506,-1.137628,-1.151646,-1.145845,-1.164052,-1.157124,-1.167436,-1.179359,-1.172753,-1.167919,-1.190638,-1.196116,-1.160346,-1.191443,-1.173558,-1.194988,-1.192893,-1.17372,-1.17952,-1.195955,-1.172269,-1.180648,-1.192893,-1.175009,-1.187576,-1.178714,-1.178392,-1.177264,-1.161957,-1.17372,-1.16663,-1.163085,-1.163246,-1.164697,-1.17098,-1.17517,-1.153096,-1.169369,-1.172914,-1.148584,-1.17098,-1.167758,-1.181131,-1.185643,-1.194182,-1.178553,-1.193054,-1.194505,-1.177264,-1.198694,-1.180809,-1.189349,-1.191443,-1.190154,-1.201755,-1.193377,-1.205622,-1.21255,-1.199983,-1.199499,-1.19676,-1.198372,-1.209972,-1.209489,-1.207556,-1.189832,-1.220123,-1.204333,-1.194988,-1.213356,-1.203205,-1.211906,-1.188543,-1.211745,-1.187093,-1.199338,-1.189832,-1.207233,-1.183387,-1.189671,-1.186609,-1.196277,-1.190799,-1.166308,-1.190154,-1.176136,-1.162119,-1.162119,-1.177748,-1.155835,-1.132955,-1.158091,-1.143912,-1.157768,-1.143106,-1.14649,-1.144717,-1.141334,-1.123932,-1.130377,-1.104758,-1.106531,-1.12506,-1.081557,-1.110881,-1.07914,-1.076562,-1.091707,-1.078495,-1.079945,-1.093158,-1.070761,-1.083168,-1.089452,-1.081073,-1.089935,-1.092674,-1.107175,-1.079623,-1.086874,-1.104275,-1.086713,-1.089452,-1.106209,-1.101536,-1.088646,-1.120871,-1.091063,-1.10782,-1.105403,-1.096058,-1.079462,-1.107175,-1.096058,-1.089774,-1.108625,-1.09203,-1.112654,-1.080912,-1.101053,-1.093802,-1.095736,-1.095897,-1.092835,-1.073984,-1.091385,-1.09058,-1.068022,-1.105886,-1.070278,-1.084296,-1.102986,-1.107498,-1.101697,-1.099925,-1.103792,-1.091385,-1.103469,-1.079623,-1.111203,-1.109914,-1.100086,-1.124899,-1.130861,-1.08784,-1.11072,-1.121193,-1.083651,-1.113298,-1.091063,-1.098152,-1.083329,-1.085585,-1.087196,-1.083973,-1.067055,-1.096058,-1.062866,-1.061255,-1.077206,-1.017429,-1.075595,-1.013723,-1.007278,-1.006312,-0.994389,-0.99036,-0.983593,-0.956686,-0.954913,-0.961519,-0.898359,-0.938317,-0.90577,-0.889497,-0.904804,-0.926072,-0.894814,-0.88128,-0.888369,-0.863556,-0.888852,-0.867262,-0.884502,-0.883535,-0.865973,-0.897875,-0.884341,-0.881763,-0.880313,-0.879024,-0.879346,-0.890947,-0.84116,-0.891269,-0.89707,-0.868873,-0.893364,-0.875962,-0.85985,-0.90142,-0.884019,-0.85695,-0.91866,-0.873223,-0.91286,-0.885791,-0.862428,-0.87274,-0.884824,-0.854211,-0.883052,-0.867262,-0.836165,-0.86984,-0.841321,-0.843577,-0.822792,-0.836326,-0.804423,-0.845188,-0.830364,-0.83697,-0.800234,-0.803296,-0.836004,-0.77526,-0.81538,-0.811352,-0.80829,-0.81538,-0.843415,-0.817958,-0.849538,-0.848249,-0.83262,-0.855661,-0.848249,-0.872579,-0.863073,-0.855177,-0.898198,-0.846638,-0.844543,-0.879346,-0.874029,-0.880474,-0.886758,-0.877735,-0.881763,-0.88708,-0.899487,-0.888852,-0.892558,-0.903192,-0.900292,-0.892075,-0.87564,-0.896103,-0.905126,-0.90287,-0.907543,-0.87709,-0.912538,-0.900614,-0.882407,-0.882085,-0.877574,-0.901581,-0.899164,-0.8642,-0.864684,-0.894331,-0.879024,-0.879668,-0.887886,-0.876124,-0.867906,-0.879991,-0.884502,-0.88563,-0.885469,-0.868551,-0.898198,-0.875318,-0.919305,-0.891591,-0.897875,-0.906415,-0.924461,-0.92575,-0.916727,-0.944924,-0.92011,-0.943957,-0.920916,-0.926716,-0.928489,-0.926716,-0.909154,-0.930422,-0.900614,-0.926394,-0.945729,-0.910765,-0.938962,-0.911087,-0.915438,-0.91431,-0.899809,-0.902548,-0.914632,-0.894975,-0.920755,-0.926555,-0.907059,-0.948952,-0.879024,-0.916405,-0.919788,-0.906415,-0.90722,-0.908671,-0.913988,-0.91431,-0.916566,-0.922366,-0.923333,-0.920272,-0.938156,-0.928005,-0.932678,-0.947501,-0.921883,-0.947179,-0.95588,-0.944279,-0.943473,-0.958136,-0.940412,-0.953785,-0.952174,-0.956524,-0.946374,-0.957008,-0.930422,-0.944118,-0.953463,-0.956847,-0.941057,-0.927844,-0.946374,-0.949113,-0.92575,-0.920433,-0.952335,-0.92285,-0.930422,-0.947985,-0.931067,-0.938156,-0.936223,-0.923977,-0.930745,-0.932517,-0.932356,-0.95298,-0.931067,-0.959264,-0.939445,-0.959264,-0.977148,-0.954591,-0.972476,-0.952335,-0.959908,-0.98746,-0.978437,-0.957491,-0.963775,-0.962164,-0.963131,-0.973604,-0.958136,-0.96732,-0.96732,-0.969253,-0.961036,-0.974893,-0.970059,-0.989071,-0.966192,-0.995516,-0.982465,-0.989071,-1.004056,-0.997611,-0.992616,-1.035636,-1.022102,-1.011307,-1.060288,-1.057388,-1.014851,-1.065444,-1.048687,-1.058999,-1.072534,-1.045304,-1.060772,-1.073178,-1.054004,-1.071728,-1.068828,-1.039987,-1.048848,-1.02468,-1.026291,-0.990522,-0.992294,-1.022424,-0.999383,-0.964903,-0.963131,-0.951368,-0.933323,-0.927844,-0.903192,-0.909315,-0.907543,-0.878702,-0.877251,-0.840032,-0.825853,-0.797495,-0.772682,-0.729662,-0.702432,-0.660701,-0.632826,-0.612686,-0.530029,-0.507311,-0.464774,-0.386468,-0.35666,-0.281254,-0.216965,-0.151065,-0.075176,-0.040051,0.037934,0.124457,0.154427,0.242562,0.304756,0.362438,0.413515,0.455891,0.480704,0.516151,0.553532,0.587691,0.618949,0.653591,0.685655,0.713529,0.740921,0.767023,0.781846,0.801504,0.81391,0.8181,0.824384,0.832118,0.828251,0.817777,0.821322,0.813749,0.796831,0.775885,0.754133,0.736409,0.690005,0.645857,0.639251,0.566745,0.506323,0.467975,0.38419,0.336336,0.254324,0.187779,0.109795,0.02746,-0.047946,-0.128669,-0.230338,-0.31799,-0.409831,-0.516495,-0.559676,-0.674074,-0.7925,-0.843899,-0.941862,-1.005828,-1.047237,-1.072373,-1.068989,-1.073339,-1.094447,-1.094769,-1.092513,-1.09928,-1.093802,-1.099119,-1.098475,-1.128283,-1.138756,-1.136983,-1.134083,-1.128283,-1.118293,-1.139561,-1.157607,-1.139884,-1.12796,-1.149229,-1.164374,-1.135694,-1.145684,-1.174525,-1.156479,-1.157446,-1.160668,-1.172592,-1.150195,-1.151968,-1.18242,-1.168886,-1.155835,-1.176136,-1.178553,-1.166791,-1.157124,-1.180648,-1.19531,-1.169208,-1.16228,-1.175009,-1.198533,-1.177425,-1.171464,-1.163569,-1.190154,-1.202238,-1.189671,-1.182581,-1.161474,-1.169047,-1.168402,-1.191121,-1.208039,-1.191765,-1.182904,-1.188704,-1.175653,-1.172914,-1.176136,-1.176942,-1.164374,-1.192088,-1.207394,-1.205783,-1.203366,-1.204494,-1.213034,-1.190154,-1.201272,-1.201272,-1.191604,-1.205783,-1.207556,-1.194988,-1.198049,-1.209328,-1.200305,-1.199983,-1.201433,-1.201594,-1.200627,-1.199177,-1.207394,-1.195632,-1.185643,-1.174525,-1.172269,-1.177264,-1.191121,-1.190638,-1.188865,-1.199661,-1.207072,-1.198533,-1.198855,-1.217384,-1.192249,-1.187254,-1.171786,-1.182904,-1.187254,-1.184998,-1.206589,-1.202883,-1.203689,-1.201594,-1.189349,-1.189187,-1.187898,-1.188543,-1.200466,-1.209328,-1.198372,-1.216901,-1.194827,-1.185804,-1.187093,-1.186126,-1.212228,-1.201594,-1.194021,-1.197405,-1.184354,-1.182098,-1.214645,-1.207394,-1.204011,-1.197405,-1.199661,-1.198372,-1.207072,-1.192571,-1.199016,-1.19531,-1.197405,-1.209811,-1.200627,-1.192732,-1.199661,-1.203044,-1.204172,-1.194666,-1.173881,-1.2082,-1.223668,-1.189187,-1.204978,-1.208683,-1.201272,-1.192571,-1.188704,-1.197888,-1.2053,-1.186932,-1.194827,-1.209811,-1.210456,-1.196116,-1.184193,-1.207556,-1.202238,-1.189993,-1.198372,-1.223507,-1.180809,-1.208683,-1.222379,-1.194988,-1.216417,-1.199016,-1.210939,-1.184676,-1.208361,-1.213356,-1.192893,-1.193538,-1.2053,-1.210939,-1.184676,-1.210456,-1.220607,-1.197727,-1.207878,-1.212228,-1.191604,-1.214484,-1.203366,-1.194021,-1.219479,-1.186932,-1.204494,-1.214484,-1.196599,-1.201272,-1.212712,-1.186932,-1.213678,-1.201755,-1.210617,-1.208845,-1.184837,-1.228179,-1.17952,-1.199822,-1.222701,-1.200144,-1.189671,-1.206267,-1.201433,-1.187576,-1.199177,-1.192571,-1.2053,-1.204978,-1.207878,-1.197888,-1.196599,-1.209811,-1.19241,-1.206267,-1.180648,-1.209328,-1.169047,-1.210939,-1.197083,-1.193699,-1.198372,-1.214967,-1.179037,-1.199499,-1.202077,-1.164697,-1.199338,-1.166469,-1.199499,-1.19531,-1.184031,-1.192732,-1.181937,-1.174364,-1.191282,-1.162924,-1.167758,-1.202883,-1.161313,-1.185482,-1.172914,-1.159863,-1.158735,-1.155835,-1.130538,-1.143267,-1.145684,-1.107175,-1.148906,-1.102986,-1.127316,-1.098152,-1.105403,-1.097186,-1.098636,-1.091707,-1.105403,-1.10073,-1.076401,-1.109431,-1.076401,-1.085262,-1.094608,-1.102342,-1.097991,-1.114909,-1.080107,-1.100892,-1.107014,-1.084296,-1.103631,-1.080268,-1.105725,-1.071245,-1.075756,-1.106047,-1.085101,-1.067539,-1.09638,-1.054971,-1.072373,-1.092191,-1.051265,-1.078979,-1.068506,-1.063188,-1.065283,-1.058516,-1.054649,-1.051426,-1.051426,-1.045948,-1.064477,-1.055455,-1.08204,-1.053199,-1.050943,-1.065444,-1.060772,-1.058838,-1.070761,-1.050137,-1.043531,-1.065605,-1.041598,-1.063672,-1.005345,-1.042887,-1.030964,-1.053199,-1.018235,-1.037248,-1.024035,-1.000189,-1.034186,-0.998094,-1.010823,-0.969414,-0.995033,-0.976826,-0.99745,-0.982788,-0.980854,-0.973281,-0.959747,-0.982304,-0.96168,-0.989555,-0.965708,-0.959586,-0.977471,-0.980371,-0.94009,-0.966031,-0.97022,-0.928489,-0.991166,-0.935739,-0.960553,-0.971026,-0.968609,-0.960553,-0.971509,-0.95878,-0.995033,-0.96168,-0.949274,-1.017268,-0.945407,-1.000995,-0.990522,-0.953785,-0.982627,-0.980854,-0.974248,-0.997772,-0.973765,-0.984882,-1.001961,-0.99745,-1.020652,-0.998739,-0.995839,-1.009534,-1.022746,-1.005667,-1.022424,-1.020652,-1.008567,-1.031608,-0.992777,-1.023874,-1.020491,-0.988266,-1.02178,-1.02903,-1.000028,-1.024358,-0.9989,-0.974409,-1.018074,-0.987299,-1.005023,-1.007278,-1.013723,-1.025647,-1.021135,-1.00889,-1.010823,-1.007923,-1.001156,-1.050299,-0.971831,-1.022424,-0.982465,-1.017752,-1.00744,-0.99036,-0.97457,-1.004378,-0.982304,-0.964903,-0.991488,-0.956202,-0.982627,-0.974731,-0.959747,-0.929456,-0.966353,-0.940895,-0.930745,-0.924461,-0.911732,-0.944924,-0.886274,-0.925589,-0.923011,-0.905126,-0.93155,-0.937512,-0.899487,-0.940251,-0.91721,-0.891108,-0.967642,-0.897875,-0.930745,-0.935901,-0.935095,-0.968448,-0.943151,-0.956686,-0.954108,-0.956202,-0.965708,-0.998417,-0.949596,-0.992777,-0.970864,-0.972153,-0.975054,-0.946857,-0.962808,-0.976665,-0.97167,-0.962325,-0.98166,-0.975859,-0.983754,-0.95298,-0.976504,-0.983593,-0.970381,-0.984238,-0.982949,-0.981015,-1.001156,-1.019846,-0.999867,-1.005989,-1.012273,-1.016463,-1.034347,-1.027902,-1.028869,-1.045304,-1.041276,-1.017429,-1.070117,-1.028225,-1.041115,-1.052715,-1.040148,-1.053521,-1.04482,-1.039826,-1.04482,-1.040953,-1.044981,-1.054649,-1.025324,-1.047882,-1.064639,-1.031286,-1.05771,-1.068828,-1.039826,-1.060449,-1.066733,-1.054327,-1.07205,-1.061738,-1.074145,-1.078656,-1.086713,-1.080429,-1.093963,-1.100247,-1.107659,-1.101375,-1.107336,-1.123932,-1.112331,-1.111203,-1.11507,-1.104275,-1.119582,-1.121193,-1.100247,-1.13795,-1.13215,-1.11072,-1.138756,-1.12216,-1.141172,-1.122965,-1.128605,-1.138433,-1.131183,-1.135694,-1.145523,-1.127477,-1.129088,-1.13795,-1.114426,-1.11781,-1.125705,-1.106692,-1.112976,-1.112976,-1.112331,-1.096541,-1.099925,-1.101697,-1.106047,-1.100408,-1.106692,-1.111203,-1.104597,-1.111365,-1.105564,-1.100408,-1.102019,-1.131666,-1.123932,-1.122965,-1.132472,-1.122643,-1.125866,-1.136822,-1.140689,-1.142139,-1.146651,-1.149873,-1.148262,-1.151646,-1.162119,-1.139884,-1.148101,-1.161313,-1.137789,-1.137628,-1.143428,-1.148423,-1.143912,-1.138756,-1.137789,-1.15229,-1.124416,-1.141978,-1.141334,-1.123932,-1.138111,-1.128121,-1.134405,-1.126832,-1.140045,-1.129894,-1.140689,-1.114104,-1.11362,-1.114909,-1.124093,-1.117971,-1.090741,-1.103631,-1.111526,-1.073178,-1.070439,-1.079945,-1.050943,-1.069472,-1.049976,-1.047076,-1.039503,-1.04192,-1.040309,-1.042404,-1.062383,-1.070922,-1.082846,-1.081396,-1.085101,-1.111687,-1.081234,-1.113781,-1.122804,-1.111687,-1.12941,-1.141656,-1.121838,-1.139561,-1.12941,-1.103308,-1.112009,-1.103469,-1.100569,-1.096702,-1.079623,-1.062705,-1.064477,-1.039503,-1.018235,-1.032736,-0.992777,-0.992455,-0.984399,-0.983432,-0.967642,-0.972637,-0.975537,-0.957975,-0.945407,-0.96168,-0.967481,-0.957169,-0.977954,-0.962808,-0.972476,-0.991005,-0.959264,-0.942668,-0.989394,-0.949274,-0.968609,-0.964742,-0.956202,-0.954752,-0.935739,-0.959586,-0.953463,-0.94299,-0.97022,-0.951691,-0.950885,-0.973765,-0.959425,-0.928811,-0.95153,-0.941218,-0.984399,-0.971026,-0.975376,-0.974248,-0.97167,-0.963131,-0.99455,-0.962969,-0.960069,-0.977632,-0.957652,-0.97457,-0.975698,-0.976987,-0.94154,-0.975859,-0.944762,-0.937834,-0.963614,-0.940412,-0.96587,-0.932034,-0.966353,-0.950402,-0.953785,-0.939123,-0.945085,-0.928005,-0.972153,-0.958297,-0.961358,-0.970864,-0.948307,-0.954752,-0.943957,-0.935256,-0.95733,-0.961358,-0.942346,-0.965386,-0.962969,-0.954108,-0.980854,-0.970542,-0.972476,-0.966675,-0.981015,-0.963614,-0.977793,-0.963131,-0.974248,-0.993261,-0.934289,-0.98311,-0.969414,-0.976665,-0.973281,-0.97457,-0.950724,-0.98746,-0.95588,-0.934289,-0.969898,-0.943473,-0.97022,-0.964903,-0.972315,-0.978598,-0.94589,-0.972798,-0.981499,-0.939284,-0.990199,-0.99036,-0.972637,-0.997772,-0.975054,-0.971509,-0.975054,-0.95878,-0.941057
 18:29:18.54131,-0.981176,-0.940573,-0.937673,-0.963131,-0.917532,-0.922366,-0.917371,-0.943473,-0.930261,-0.923333,-0.922366,-0.942507,-0.940573,-0.932356,-0.967803,-0.927039,-0.980693,-1.0018,-0.972798,-0.999545,-1.02178,-1.009373,-1.042565,-1.049493,-1.039181,-1.069311,-1.052393,-1.090257,-1.075273,-1.078979,-1.070761,-1.069956,-1.080912,-1.086874,-1.048687,-1.071728,-1.092835,-1.037086,-1.080912,-1.050621,-1.048526,-1.048204,-1.05626,-1.046915,-1.04627,-1.019846,-1.026452,-1.037409,-0.985043,-1.008567,-0.984882,-0.96877,-0.95733,-0.98601,-0.940734,-0.962003,-0.960553,-0.911893,-0.945729,-0.886274,-0.886274,-0.919949,-0.875801,-0.888369,-0.891108,-0.889497,-0.870484,-0.855661,-0.87419,-0.88273,-0.82263,-0.914793,-0.868712,-0.863395,-0.890786,-0.876607,-0.870162,-0.889658,-0.882569,-0.876607,-0.889819,-0.871129,-0.916082,-0.871129,-0.916082,-0.912376,-0.906254,-0.897231,-0.910765,-0.946212,-0.948146,-0.946535,-0.910443,-0.927683,-0.938801,-0.924783,-0.93864,-0.935417,-0.919788,-0.93445,-0.959586,-0.936545,-0.950241,-0.933967,-0.936062,-0.938317,-0.941701,-0.938801,-0.942346,-0.932195,-0.954913,-0.949757,-0.933484,-0.959264,-0.926716,-0.937834,-0.920755,-0.933967,-0.934612,-0.946212,-0.952819,-0.949274,-0.934612,-0.952013,-0.969092,-0.958941,-0.981982,-0.956847,-0.962003,-0.988749,-0.976182,-0.965064,-0.989394,-1.00325,-0.997128,-1.024196,-1.020652,-1.03048,-1.041759,-1.016785,-1.057549,-1.0619,-1.04337,-1.068506,-1.090741,-1.088324,-1.096863,-1.097991,-1.091546,-1.089291,-1.091385,-1.100408,-1.098475,-1.106692,-1.110559,-1.111203,-1.112492,-1.118293,-1.11926,-1.114909,-1.129249,-1.118132,-1.116843,-1.125543,-1.135533,-1.119743,-1.141978,-1.129088,-1.126349,-1.138917,-1.126832,-1.139561,-1.142784,-1.144556,-1.1365,-1.136661,-1.138917,-1.152773,-1.137144,-1.142945,-1.148262,-1.130861,-1.163891,-1.139884,-1.142784,-1.147456,-1.146006,-1.151323,-1.161152,-1.172431,-1.168402,-1.179359,-1.154385,-1.172431,-1.157768,-1.164858,-1.165824,-1.16083,-1.177909,-1.172592,-1.16663,-1.164052,-1.180326,-1.171625,-1.165663,-1.165341,-1.177587,-1.184354,-1.175975,-1.17517,-1.184676,-1.173881,-1.169691,-1.183226,-1.170336,-1.199338,-1.168241,-1.172108,-1.189993,-1.197727,-1.172269,-1.194021,-1.186771,-1.171947,-1.194021,-1.183709,-1.191282,-1.178231,-1.190154,-1.183709,-1.173558,-1.181131,-1.184837,-1.181453,-1.169369,-1.185482,-1.164374,-1.188704,-1.174686,-1.167919,-1.163085,-1.180003,-1.154062,-1.177748,-1.17372,-1.152451,-1.18387,-1.147295,-1.160668,-1.167113,-1.166147,-1.166952,-1.173397,-1.149712,-1.172431,-1.157124,-1.153096,-1.187576,-1.145684,-1.171625,-1.180165,-1.169047,-1.175975,-1.165663,-1.171142,-1.180003,-1.163085,-1.176942,-1.184515,-1.17098,-1.197405,-1.18097,-1.170175,-1.178231,-1.169369,-1.162924,-1.186126,-1.178553,-1.165824,-1.180648,-1.174042,-1.184354,-1.164213,-1.177587,-1.169853,-1.159863,-1.154546,-1.158091,-1.158735,-1.145362,-1.173558,-1.144556,-1.17517,-1.149068,-1.142139,-1.157607,-1.143267,-1.130216,-1.15938,-1.144395,-1.125543,-1.158413,-1.119421,-1.154385,-1.137789,-1.1336,-1.152612,-1.146167,-1.118454,-1.146328,-1.138756,-1.129733,-1.16373,-1.127477,-1.150679,-1.135533,-1.146973,-1.127316,-1.144234,-1.151323,-1.1336,-1.152935,-1.131505,-1.151323,-1.126832,-1.131022,-1.116359,-1.132955,-1.12506,-1.114265,-1.114426,-1.134405,-1.12216,-1.088807,-1.145201,-1.097669,-1.107981,-1.11926,-1.109592,-1.126994,-1.113781,-1.124738,-1.140528,-1.116359,-1.124577,-1.175331,-1.117971,-1.16228,-1.16663,-1.157285,-1.185804,-1.175975,-1.165663,-1.170014,-1.164535,-1.169208,-1.18951,-1.167113,-1.185643,-1.174364,-1.184676,-1.169208,-1.150357,-1.162441,-1.167758,-1.161474,-1.138111,-1.146812,-1.109753,-1.127155,-1.119421,-1.101375,-1.072373,-1.069795,-1.054166,-1.030641,-1.014851,-0.964097,-1.004862,-0.930906,-0.937512,-0.920272,-0.904643,-0.860495,-0.829398,-0.784766,-0.782027,-0.732562,-0.680197,-0.671335,-0.591901,-0.573533,-0.536958,-0.463646,-0.417565,-0.358432,-0.316862,-0.232433,-0.182162,-0.15026,-0.093222,0.037772,0.052918,0.125102,0.208564,0.269953,0.350193,0.377906,0.420121,0.463302,0.491499,0.527269,0.566261,0.602837,0.635706,0.671959,0.70499,0.731253,0.756711,0.782652,0.797315,0.814072,0.825995,0.83244,0.838401,0.840979,0.83969,0.828251,0.822611,0.819872,0.792803,0.77524,0.755422,0.712885,0.694517,0.659875,0.606381,0.560783,0.49166,0.447996,0.379195,0.315712,0.262702,0.16216,0.070481,0.01876,-0.086132,-0.161055,-0.245323,-0.356015,-0.421432,-0.506505,-0.597862,-0.710166,-0.779933,-0.863878,-0.923333,-0.992938,-1.071567,-1.097347,-1.108625,-1.122482,-1.127638,-1.126188,-1.129894,-1.130055,-1.122804,-1.113298,-1.102503,-1.134566,-1.137628,-1.156802,-1.154385,-1.131022,-1.14085,-1.126994,-1.140045,-1.171464,-1.164052,-1.13505,-1.151162,-1.16228,-1.179842,-1.165663,-1.145523,-1.154707,-1.168886,-1.169853,-1.157929,-1.146812,-1.171142,-1.191927,-1.171464,-1.170497,-1.161796,-1.151484,-1.172753,-1.189187,-1.176781,-1.172592,-1.167275,-1.165019,-1.165341,-1.171142,-1.185804,-1.183548,-1.193377,-1.179198,-1.178876,-1.170336,-1.184031,-1.159218,-1.16373,-1.175331,-1.151807,-1.169369,-1.168402,-1.170014,-1.172108,-1.172108,-1.17372,-1.190315,-1.174847,-1.169047,-1.191604,-1.167597,-1.177264,-1.169853,-1.172431,-1.17098,-1.161957,-1.165502,-1.168886,-1.163891,-1.159863,-1.172753,-1.157124,-1.170658,-1.152612,-1.15229,-1.15374,-1.159057,-1.126832,-1.133761,-1.132311,-1.096058,-1.134405,-1.093641,-1.090741,-1.096219,-1.100247,-1.068667,-1.087196,-1.063994,-1.060772,-1.058194,-1.066411,-1.061094,-1.034831,-1.05336,-1.058999,-1.055777,-1.058677,-1.048365,-1.055616,-1.059966,-1.054004,-1.040309,-1.070922,-1.040631,-1.046109,-1.033864,-1.039987,-1.03757,-1.048365,-1.026291,-1.019524,-1.043854,-1.02903,-1.026613,-1.032253,-1.02323,-1.013885,-1.023391,-1.006473,-1.019685,-0.994872,-0.991488,-1.006956,-0.986332,-0.993905,-0.982949,-0.970059,-0.961519,-0.968448,-0.952819,-0.946051,-0.928972,-0.91866,-0.921722,-0.906898,-0.924783,-0.909476,-0.898036,-0.905287,-0.897714,-0.896747,-0.886758,-0.876446,-0.868228,-0.88563,-0.86984,-0.894008,-0.889497,-0.890786,-0.886435,-0.898198,-0.884341,-0.901098,-0.919305,-0.886435,-0.916082,-0.90722,-0.940573,-0.920433,-0.935901,-0.92865,-0.934612,-0.931228,-0.937512,-0.944279,-0.914954,-0.950563,-0.912215,-0.923655,-0.925266,-0.888691,-0.911893,-0.910604,-0.880957,-0.918821,-0.877574,-0.87129,-0.925911,-0.875157,-0.878863,-0.893686,-0.883052,-0.87419,-0.868551,-0.878863,-0.902548,-0.871451,-0.866134,-0.882246,-0.852116,-0.900614,-0.883052,-0.889658,-0.902548,-0.89852,-0.880635,-0.911893,-0.911087,-0.883535,-0.918821,-0.91141,-0.907865,-0.915116,-0.922527,-0.916082,-0.919305,-0.922205,-0.920272,-0.915599,-0.924783,-0.927683,-0.913182,-0.907543,-0.89707,-0.89997,-0.915921,-0.892719,-0.893042,-0.925105,-0.89562,-0.90996,-0.926394,-0.893364,-0.906415,-0.930261,-0.904965,-0.919305,-0.90996,-0.907059,-0.926555,-0.918177,-0.88418,-0.919466,-0.930583,-0.875962,-0.907704,-0.906576,-0.922205,-0.923494,-0.922205,-0.905609,-0.929294,-0.893847,-0.901098,-0.91431,-0.921077,-0.932356,-0.900776,-0.932356,-0.91431,-0.900453,-0.94444,-0.913827,-0.902387,-0.920433,-0.941379,-0.911087,-0.913021,-0.906093,-0.923172,-0.878379,-0.913343,-0.891591,-0.88853,-0.860011,-0.865812,-0.897231,-0.813769,-0.845188,-0.826175,-0.804262,-0.813285,-0.801845,-0.812157,-0.815058,-0.816347,-0.795884,-0.843899,-0.808451,-0.846316,-0.827303,-0.857594,-0.864523,-0.853727,-0.884502,-0.888208,-0.869034,-0.883696,-0.905932,-0.89143,-0.913988,-0.903837,-0.91431,-0.91286,-0.906898,-0.901742,-0.893686,-0.899003,-0.925105,-0.928972,-0.920433,-0.926716,-0.907865,-0.916888,-0.893686,-0.896747,-0.897392,-0.907865,-0.876124,-0.894814,-0.897392,-0.870001,-0.890625,-0.895781,-0.855661,-0.886758,-0.877896,-0.861784,-0.889013,-0.842771,-0.88418,-0.894008,-0.867906,-0.88418,-0.853888,-0.874996,-0.8555,-0.844543,-0.850988,-0.860978,-0.82537,-0.866456,-0.845832,-0.820536,-0.8584,-0.860495,-0.838421,-0.842771,-0.827142,-0.831492,-0.85985,-0.840676,-0.851472,-0.848894,-0.863556,-0.836648,-0.830364,-0.864845,-0.83552,-0.82682,-0.830364,-0.830687,-0.819891,-0.827464,-0.841321,-0.804101,-0.814252,-0.821986,-0.7954,-0.817797,-0.803618,-0.779288,-0.827464,-0.809096,-0.796367,-0.816508,-0.798462,-0.81973,-0.820052,-0.834876,-0.831653,-0.840032,-0.819569,-0.849538,-0.852922,-0.865651,-0.857594,-0.85695,-0.894814,-0.84696,-0.872418,-0.87564,-0.887402,-0.879829,-0.891108,-0.858722,-0.872579,-0.888852,-0.863717,-0.886758,-0.890625,-0.882085,-0.870484,-0.884985,-0.874351,-0.878379,-0.870001,-0.890947,-0.897553,-0.87419,-0.911087,-0.889336,-0.883052,-0.906093,-0.895781,-0.904481,-0.918499,-0.887886,-0.915116,-0.935417,-0.90996,-0.923655,-0.908348,-0.922205,-0.920433,-0.913827,-0.921722,-0.924622,-0.908348,-0.918177,-0.923494,-0.904965,-0.934289,-0.909315,-0.910765,-0.907865,-0.899164,-0.920433,-0.892719,-0.890464,-0.921722,-0.886435,-0.887241,-0.918338,-0.879346,-0.90142,-0.900776,-0.90722,-0.886758,-0.905932,-0.879829,-0.899325,-0.892236,-0.908671,-0.911893,-0.912699,-0.91141,-0.920916,-0.921722,-0.927361,-0.940412,-0.915438,-0.953785,-0.946857,-0.923172,-0.959908,-0.941862,-0.921883,-0.925589,-0.932678,-0.933645,-0.923011,-0.910121,-0.923494,-0.917855,-0.901742,-0.920433,-0.894492,-0.926072,-0.906415,-0.930906,-0.931711,-0.940734,-0.950241,-0.942507,-0.962969,-0.947018,-0.960553,-0.973604,-0.994389,-0.98166,-1.009856,-0.997611,-1.006795,-1.007278,-1.022424,-1.025324,-1.01469,-1.035314,-1.025647,-1.018396,-1.029836,-1.012596,-1.026774,-1.026452,-1.002123,-1.018074,-1.02468,-0.985527,-1.016624,-0.996644,-0.986332,-0.982465,-0.978115,-0.984399,-0.984882,-0.955397,-0.981499,-0.962808,-0.959425,-0.967964,-0.951046,-0.963292,-0.961519,-0.966353,-0.971509,-0.981176,-0.990522,-0.977954,-0.977471,-0.969414,-0.990844,-0.96587,-1.001317,-0.992294,-0.999867,-0.98456,-1.006634,-0.981015,-0.985849,-1.018557,-0.982465,-1.00325,-0.986816,-0.998578,-1.001961,-0.996805,-0.986655,-0.991649,-0.962969,-0.99455,-0.984399,-0.970864,-0.980854,-0.960391,-0.994066,-0.963775,-0.972798,-0.985366,-0.97312,-0.958941,-0.997289,-0.9931,-0.971992,-0.997611,-0.986816,-0.992777,-1.010984,-1.035797,-1.008245,-1.035475,-1.031608,-1.029997,-1.050299,-1.032897,-1.037409,-1.050943,-1.03757,-1.031447,-1.046593,-1.033058,-1.050621,-1.042565,-1.038053,-1.046754,-1.026936,-1.04482,-1.031286,-1.029675,-1.038375,-1.032575,-1.030641,-1.03902,-1.024035,-1.023874,-1.030964,-1.014207,-1.048043,-1.026291,-1.048365,-1.035475,-1.043048,-1.054488,-1.038859,-1.052877,-1.046593,-1.063672,-1.063188,-1.080751,-1.064639,-1.078656,-1.074145,-1.083168,-1.068667,-1.087035,-1.094608,-1.074145,-1.108787,-1.102503,-1.103469,-1.095252,-1.106853,-1.10073,-1.102825,-1.103469,-1.115232,-1.104597,-1.107014,-1.120549,-1.094285,-1.112654,-1.096702,-1.099925,-1.099764,-1.103308,-1.105564,-1.100408,-1.092191,-1.102019,-1.11926,-1.075917,-1.10782,-1.088485,-1.07914,-1.092674,-1.088163,-1.076884,-1.091385,-1.075273,-1.067378,-1.08784,-1.073984,-1.094447,-1.059805,-1.070922,-1.071728,-1.05191,-1.056582,-1.071567,-1.043209,-1.056099,-1.069633,-1.068506,-1.072534,-1.05916,-1.077851,-1.083812,-1.073017,-1.061255,-1.086551,-1.08639,-1.092352,-1.111526,-1.088002,-1.118454,-1.081879,-1.093963,-1.104275,-1.085424,-1.102986,-1.099925,-1.092674,-1.094447,-1.101858,-1.077851,-1.099441,-1.066572,-1.099925,-1.094608,-1.092996,-1.087196,-1.107336,-1.078656,-1.08059,-1.103147,-1.065605,-1.092513,-1.099119,-1.088968,-1.100569,-1.103308,-1.096219,-1.114587,-1.10492,-1.101053,-1.118615,-1.103792,-1.115715,-1.111687,-1.110559,-1.121193,-1.130538,-1.114104,-1.126994,-1.11781,-1.113943,-1.126832,-1.115554,-1.126349,-1.11072,-1.111203,-1.106531,-1.106692,-1.094285,-1.089129,-1.068667,-1.071567,-1.07624,-1.045787,-1.061094,-1.019363,-1.040792,-1.043854,-1.024358,-1.022746,-1.047237,-1.022746,-0.995355,-1.024196,-0.994066,-1.006312,-0.991327,-0.991327,-0.986493,-0.989555,-0.97602,-0.987299,-0.964097,-0.94154,-0.941701,-0.905287,-0.955397,-0.879991,-0.90142,-0.891591,-0.874835,-0.854694,-0.905609,-0.859689,-0.8642,-0.886758,-0.860817,-0.897714,-0.868067,-0.915116,-0.891591,-0.874996,-0.915599,-0.913343,-0.905126,-0.927361,-0.957813,-0.918338,-0.940895,-0.928328,-0.948307,-0.942829,-0.94734,-0.936545,-0.952013,-0.936706,-0.941379,-0.959102,-0.932839,-0.94154,-0.943312,-0.929617,-0.937995,-0.946696,-0.937673,-0.954591,-0.946696,-0.944118,-0.996,-0.947018,-0.996483,-1.018074,-1.011145,-1.038053,-1.041276,-1.040953,-1.077367,-1.042726,-1.054971,-1.087196,-1.032736,-1.079945,-1.073017,-1.052071,-1.061738,-1.042565,-1.028225,-1.048848,-1.024035,-1.004056,-1.020813,-0.960391,-1.012596,-0.978921,-0.975698,-0.960069,-0.974893,-0.963453,-0.962969,-0.936706,-0.933161,-0.981982,-0.963936,-0.957652,-0.93445,-0.97312,-0.955235,-0.942184,-0.948468,-0.968125,-0.935578,-0.923494,-0.982949,-0.927683,-0.929294,-0.936384,-0.926716,-0.928811,-0.925105,-0.927522,-0.936384,-0.903998,-0.906254,-0.912376,-0.867906,-0.932034,-0.905932,-0.900614,-0.908671,-0.891914,-0.909637,-0.901098,-0.894331,-0.88273,-0.89707,-0.858239,-0.890464,-0.887402,-0.903837,-0.88418,-0.890625,-0.881924,-0.89143,-0.916566,-0.885469,-0.913343,-0.908026,-0.92575,-0.901903,-0.924944,-0.911571,-0.918499,-0.913343,-0.943635,-0.891753,-0.91576,-0.92865,-0.870484,-0.902226,-0.925589,-0.90287,-0.905448,-0.911893,-0.885791,-0.908993,-0.897553,-0.884985,-0.908187,-0.850666,-0.88418,-0.883535,-0.882569,-0.89707,-0.868873,-0.872418,-0.907704,-0.880152,-0.859206,-0.929133,-0.874351,-0.898842,-0.87419,-0.883696,-0.883535,-0.870162,-0.888047,-0.881924,-0.896103,-0.901742,-0.928811,-0.90432,-0.910765,-0.943635,-0.909476,-0.922205,-0.937995,-0.9243,-0.931872,-0.925266,-0.933967,-0.941701,-0.901742,-0.939284,-0.949918,-0.91866,-0.938962,-0.931711,-0.916405,-0.92865,-0.94734,-0.916566,-0.956363,-0.896586,-0.907865,-0.913988,-0.904804,-0.897392,-0.912376,-0.919144,-0.926555,-0.919788,-0.915116,-0.950079,-0.892236,-0.928005,-0.923977,-0.933967,-0.928328,-0.948952,-0.945246,-0.966514,-0.976343,-0.956041,-0.992294,-0.975215,-0.981499,-1.004539,-0.996483,-1.024196,-1.025969,-1.024519,-1.028225,-1.032736,-1.052232,-1.049493,-1.028708,-1.04482,-1.062866,-1.033219,-1.05336,-1.060127,-1.032092,-1.044015,-1.052232,-1.041759,-1.045143,-1.050299,-1.057066,-1.054649,-1.032092,-1.037892,-1.037409,-1.043048,-1.054971,-1.047559,-1.049171,-1.058194,-1.042565,-1.055132,-1.064961,-1.059644,-1.051749,-1.063027,-1.074789,-1.056099,-1.080107,-1.072211,-1.078495,-1.086551,-1.08059,-1.090096,-1.087679,-1.097025,-1.096058,-1.110398,-1.118937,-1.115876,-1.097991,-1.112976,-1.104758,-1.106531,-1.120226,-1.107336,-1.112331,-1.111848,-1.11781,-1.100247,-1.103953,-1.100086,-1.107981,-1.101053,-1.107336,-1.109914,-1.10782,-1.119099,-1.102664,-1.096058,-1.111848,-1.122321,-1.106692,-1.115232,-1.114426,-1.112976,-1.124899,-1.110398,-1.112654,-1.100892,-1.107498,-1.101858,-1.11362,-1.104114,-1.104114,-1.107175,-1.08639,-1.087196,-1.063994,-1.088163,-1.072373,-1.054004,-1.080107,-1.074628,-1.047882,-1.061255,-1.065605,-1.058516,-1.049654,-1.036925,-1.050782,-1.045948,-1.051749,-1.055616,-1.051265,-1.047882,-1.046915,-1.030641,-1.048204,-1.052554,-1.020652,-1.057388,-1.051749,-1.043048,-1.048687,-1.054971,-1.024358,-1.054004,-1.064639,-1.037248,-1.073662,-1.060933,-1.053843,-1.077529,-1.075112,-1.07624,-1.0735,-1.058033,-1.092513,-1.095413,-1.081234,-1.106531,-1.090418,-1.103147,-1.113137,-1.106047,-1.091385,-1.116682,-1.102019,-1.120065,-1.125866,-1.111042,-1.12361,-1.101858,-1.118776,-1.105242,-1.115393,-1.094769,-1.099119,-1.092352,-1.099119,-1.114265,-1.091224,-1.095574,-1.096219,-1.098797,-1.097508,-1.118615,-1.09203,-1.118937,-1.107981,-1.123771,-1.1336,-1.129088,-1.146006,-1.14375,-1.150518,-1.1394,-1.150195,-1.152451,-1.16228,-1.151646,-1.162602,-1.18387,-1.161152,-1.182742,-1.17807,-1.184676,-1.186287,-1.180487,-1.177587,-1.166469,-1.173075,-1.172431,-1.173236,-1.161474,-1.18242,-1.151162,-1.169047,-1.15664,-1.163569,-1.13795,-1.15084,-1.14649,-1.138756,-1.146973,-1.127316,-1.117004,-1.104758,-1.09203,-1.068344,-1.075112,-1.019202,-1.025163,-0.978437,-0.966192,-0.928167,-0.896747,-0.860011,-0.800395,-0.763176,-0.729017,-0.659895,-0.598507,-0.562415,-0.46139,-0.417242,-0.366005,-0.272392,-0.218737,-0.126574,-0.067281,-0.002025,0.083371,0.167478,0.231766,0.326346,0.378067,0.42721,0.478932,0.506806,0.542576,0.581246,0.618788,0.655202,0.690166,0.726903,0.760095,0.790225,0.819228,0.844363,0.868854,0.890445,0.903335,0.920253,0.934916,0.939427,0.945066,0.951834,0.949739,0.941522,0.939749,0.922187,0.907202,0.887061,0.854836,0.812138,0.771857,0.673248,0.683077,0.578346,0.503745,0.434622,0.375167,0.29396,0.201636,0.134447,0.030522,-0.096766,-0.157832,-0.240006,-0.353115,-0.431421,-0.526323,-0.614136,-0.707749,-0.808935,-0.871451,-0.955074,-1.004378,-1.05336,-1.047721,-1.0619,-1.071889,-1.091869,-1.091869,-1.091063,-1.091385,-1.082523,-1.078173,-1.079462,-1.086551,-1.088485,-1.092674,-1.089291,-1.098797,-1.095897,-1.101375,-1.103953,-1.101697,-1.116843,-1.142623,-1.137144,-1.131666,-1.136661,-1.106853,-1.118937,-1.136983,-1.154224,-1.153901,-1.142945,-1.108948,-1.130377,-1.156157,-1.168402,-1.162763,-1.141817,-1.146651,-1.137789,-1.165663,-1.17098,-1.15374,-1.142784,-1.152612,-1.131666,-1.158413,-1.179681,-1.149873,-1.170497,-1.151162,-1.152935,-1.145201,-1.141978,-1.153579,-1.174686,-1.165019,-1.154062,-1.168725,-1.154224,-1.152773,-1.152129,-1.155674,-1.150518,-1.143589,-1.144878,-1.146006,-1.137628,-1.136339,-1.154546,-1.138111,-1.127477,-1.145684,-1.1336,-1.130216,-1.132794,-1.131183,-1.122804,-1.141495,-1.114909,-1.138272,-1.127477,-1.132794,-1.118132,-1.112492,-1.121354,-1.109109,-1.107014,-1.108464,-1.109914,-1.111687,-1.11507,-1.096058,-1.117004,-1.103308,-1.101053,-1.115393,-1.110237,-1.117165,-1.12216,-1.124093,-1.114265,-1.121193,-1.125382,-1.112009,-1.117165,-1.113298,-1.102986,-1.111526,-1.10782,-1.109753,-1.098797,-1.096058,-1.114748,-1.075434,-1.085424,-1.101697,-1.062866,-1.084457,-1.074467,-1.064639,-1.081234,-1.060933,-1.027097,-1.075273,-1.048848,-1.054004,-1.067055,-1.0648,-1.065122,-1.082362,-1.064155,-1.07914,-1.061094,-1.0706,-1.084779,-1.067217,-1.078656,-1.084457,-1.092835,-1.083168,-1.071084,-1.075273,-1.080429,-1.060772,-1.066411,-1.077529,-1.048204,-1.06335,-1.050621,-1.054166,-1.038375,-1.053038,-1.048043,-1.027902,-1.019846,-1.01034,-1.017752,-0.995355,-1.006634,-0.992455,-0.988749,-0.990038,-0.988427,-0.970381,-0.940895,-0.977954,-0.95298,-0.957975,-0.91431,-0.926555,-0.918821,-0.916888,-0.921077,-0.883696,-0.888691,-0.88128,-0.887402,-0.893525,-0.89143,-0.852438,-0.870968,-0.860978,-0.841482,-0.85985,-0.84841,-0.847121,-0.832781,-0.853727,-0.844866,-0.840999,-0.85131,-0.868873,-0.865167,-0.837293,-0.844704,-0.843254,-0.868228,-0.859044,-0.84406,-0.83971,-0.888369,-0.830525,-0.828431,-0.849699,-0.825692,-0.845832,-0.837132,-0.828109,-0.844543,-0.832459,-0.848571,-0.852761,-0.832459,-0.853888,-0.854533,-0.82827,-0.852116,-0.833909,-0.853727,-0.852438,-0.834231,-0.836648,-0.847282,-0.84116,-0.838098,-0.856144,-0.861461,-0.830042,-0.872257,-0.852922,-0.846155,-0.849055,-0.853405,-0.83697,-0.855822,-0.849538,-0.869195,-0.847121,-0.846316,-0.863556,-0.835198,-0.854211,-0.830687,-0.848571,-0.866295,-0.827464,-0.836326,-0.844543,-0.786861,-0.822953,-0.840032,-0.790083,-0.81828,-0.79395,-0.809418,-0.847282,-0.795562,-0.803457,-0.813285,-0.796206,-0.804907,-0.814574,-0.797817,-0.813607,-0.790728,-0.793306,-0.806196,-0.77671,-0.788955,-0.804423,-0.80104,-0.789278,-0.786055,-0.785411,-0.811352,-0.81538,-0.754958,-0.778482,-0.792339,-0.763176,-0.782511,-0.787989,-0.762209,-0.791372,-0.767687,-0.756408,-0.762531,-0.749641,-0.773004,-0.734496,-0.756086,-0.782188,-0.733851,-0.767687,-0.751736,-0.742068,-0.776227,-0.750125,-0.760759,-0.766076,-0.763498,-0.782349
 18:29:19.54037,-0.77381,-0.756731,-0.802651,-0.757053,-0.789761,-0.756731,-0.762531,-0.761726,-0.780577,-0.757375,-0.742552,-0.758342,-0.738363,-0.763981,-0.774615,-0.759631,-0.750447,-0.77381,-0.748836,-0.772037,-0.768009,-0.730467,-0.771232,-0.765754,-0.768815,-0.761726,-0.785411,-0.783638,-0.76092,-0.754636,-0.783961,-0.767848,-0.764304,-0.7925,-0.754153,-0.777999,-0.795239,-0.764465,-0.766882,-0.782994,-0.770426,-0.761887,-0.779771,-0.747063,-0.753992,-0.742713,-0.739329,-0.714194,-0.699854,-0.700982,-0.699048,-0.67923,-0.669563,-0.703076,-0.661829,-0.720317,-0.699854,-0.691153,-0.704688,-0.71226,-0.733045,-0.739329,-0.721928,-0.743519,-0.762531,-0.761726,-0.799106,-0.749641,-0.794917,-0.810868,-0.817474,-0.794111,-0.829075,-0.823114,-0.835681,-0.807163,-0.832137,-0.846799,-0.784122,-0.810385,-0.815541,-0.789761,-0.794434,-0.776388,-0.754153,-0.77381,-0.771876,-0.724506,-0.762853,-0.744163,-0.734334,-0.742874,-0.738201,-0.723378,-0.713711,-0.743519,-0.707588,-0.695181,-0.701787,-0.71081,-0.675202,-0.681808,-0.678424,-0.660217,-0.651033,-0.683742,-0.66199,-0.667951,-0.664246,-0.67488,-0.67488,-0.665535,-0.678908,-0.68213,-0.673752,-0.678102,-0.704365,-0.672141,-0.705332,-0.711455,-0.689381,-0.724828,-0.70066,-0.720478,-0.704527,-0.714194,-0.711294,-0.717739,-0.741424,-0.73224,-0.728373,-0.713388,-0.725634,-0.749641,-0.779933,-0.754636,-0.74223,-0.763176,-0.777355,-0.759792,-0.784766,-0.763659,-0.777677,-0.798301,-0.777355,-0.7954,-0.794434,-0.790244,-0.777838,-0.793145,-0.767365,-0.776549,-0.797978,-0.775582,-0.789761,-0.757536,-0.785089,-0.783316,-0.781866,-0.788472,-0.800073,-0.784444,-0.815219,-0.81393,-0.804907,-0.832781,-0.807807,-0.850988,-0.847121,-0.831814,-0.834231,-0.852599,-0.856628,-0.862589,-0.860333,-0.858239,-0.868712,-0.856144,-0.88128,-0.852761,-0.856466,-0.861622,-0.893042,-0.885952,-0.878379,-0.934612,-0.887563,-0.929133,-0.931228,-0.9272,-0.949113,-0.947985,-0.921399,-0.959425,-0.940251,-0.938156,-0.950241,-0.917694,-0.963936,-0.919788,-0.943796,-0.950079,-0.933806,-0.940251,-0.951852,-0.941862,-0.951368,-0.970864,-0.943635,-0.978437,-0.976987,-0.987621,-0.992777,-1.003412,-1.008084,-1.008084,-1.017107,-1.018879,-1.037409,-1.023391,-1.038375,-1.036442,-1.043854,-1.053682,-1.056582,-1.044659,-1.068183,-1.058033,-1.049815,-1.069311,-1.069795,-1.064961,-1.067055,-1.063188,-1.061255,-1.058999,-1.062544,-1.071084,-1.045948,-1.055132,-1.062383,-1.04047,-1.063994,-1.049493,-1.053682,-1.050782,-1.06625,-1.065122,-1.068022,-1.073017,-1.079623,-1.094608,-1.082362,-1.106209,-1.093963,-1.107498,-1.106692,-1.109431,-1.099441,-1.118615,-1.116198,-1.093641,-1.126832,-1.121838,-1.107014,-1.115554,-1.119582,-1.12796,-1.134244,-1.116521,-1.142461,-1.130699,-1.128121,-1.146006,-1.121193,-1.15374,-1.140045,-1.134566,-1.145362,-1.140206,-1.118293,-1.13215,-1.136339,-1.121193,-1.145201,-1.130861,-1.138111,-1.138917,-1.147295,-1.150034,-1.1394,-1.150679,-1.162763,-1.147617,-1.156802,-1.170014,-1.141817,-1.156802,-1.162763,-1.161313,-1.154224,-1.15664,-1.164858,-1.165019,-1.157607,-1.153096,-1.161474,-1.139561,-1.161313,-1.149873,-1.15229,-1.154385,-1.15664,-1.151484,-1.151807,-1.127477,-1.122965,-1.151484,-1.129733,-1.128121,-1.134405,-1.131988,-1.141011,-1.141172,-1.146973,-1.131827,-1.142784,-1.14085,-1.141656,-1.119904,-1.144395,-1.133116,-1.143106,-1.151162,-1.138595,-1.141011,-1.153096,-1.133922,-1.109109,-1.150679,-1.117165,-1.136661,-1.130861,-1.106692,-1.132955,-1.132311,-1.102986,-1.148906,-1.137144,-1.107175,-1.153901,-1.134728,-1.134083,-1.146812,-1.132794,-1.130216,-1.140528,-1.136339,-1.146812,-1.135372,-1.1394,-1.145039,-1.12216,-1.137306,-1.131505,-1.127316,-1.136017,-1.119743,-1.12071,-1.114587,-1.127638,-1.09493,-1.112492,-1.087518,-1.067861,-1.076884,-1.074951,-1.050621,-1.05336,-1.042887,-1.047559,-1.027902,-1.016463,-1.023391,-0.984721,-1.000995,-0.981982,-0.992294,-0.991166,-0.979243,-0.97876,-0.980532,-0.966997,-0.971348,-0.978115,-0.951691,-0.983271,-0.964742,-0.940251,-0.962486,-0.971348,-0.956686,-0.972153,-0.942829,-0.941218,-0.963292,-0.924622,-0.933161,-0.918983,-0.932034,-0.935739,-0.94444,-0.919627,-0.927361,-0.919949,-0.905932,-0.941218,-0.912054,-0.929133,-0.930906,-0.941218,-0.937834,-0.957008,-0.949274,-0.954269,-0.94154,-0.945246,-0.967642,-0.928005,-0.953624,-0.96168,-0.943151,-0.954108,-0.94589,-0.928489,-0.942507,-0.908671,-0.924461,-0.933161,-0.906898,-0.951691,-0.91576,-0.92575,-0.929778,-0.934612,-0.930422,-0.959264,-0.905932,-0.922205,-0.965225,-0.928167,-0.969253,-0.956524,-0.978921,-0.964903,-0.980854,-0.985043,-0.984238,-1.002284,-0.968286,-1.026936,-0.988105,-0.998256,-1.001317,-0.996805,-1.014207,-0.999222,-0.992455,-1.010823,-0.992294,-0.976665,-1.033058,-0.97602,-1.003734,-0.991972,-0.984721,-1.009856,-0.973765,-0.980532,-0.969253,-0.956041,-0.950079,-0.971992,-0.9301,-0.921722,-0.933,-0.922205,-0.921722,-0.888691,-0.923977,-0.914632,-0.896747,-0.884663,-0.889497,-0.873384,-0.888691,-0.879991,-0.842449,-0.851149,-0.873707,-0.839548,-0.84116,-0.856144,-0.814091,-0.876446,-0.861945,-0.838743,-0.869356,-0.854211,-0.863556,-0.884502,-0.871612,-0.867745,-0.891914,-0.88418,-0.884341,-0.881602,-0.871129,-0.872579,-0.865651,-0.894814,-0.87709,-0.873868,-0.884502,-0.903192,-0.871773,-0.912538,-0.863234,-0.86839,-0.902709,-0.904159,-0.918016,-0.896103,-0.939123,-0.908026,-0.916888,-0.905609,-0.924139,-0.907059,-0.900131,-0.916405,-0.890464,-0.88563,-0.903676,-0.864684,-0.866456,-0.865973,-0.840032,-0.857111,-0.847605,-0.841321,-0.841804,-0.810385,-0.840515,-0.828592,-0.823919,-0.816508,-0.826981,-0.80104,-0.850666,-0.829075,-0.796045,-0.824886,-0.80104,-0.824564,-0.809096,-0.828592,-0.823919,-0.808774,-0.829236,-0.813285,-0.791695,-0.7896,-0.804101,-0.768009,-0.785894,-0.769943,-0.758664,-0.739168,-0.763337,-0.750286,-0.746097,-0.753669,-0.747869,-0.736429,-0.734979,-0.757375,-0.77816,-0.780094,-0.796045,-0.825208,-0.794595,-0.853566,-0.843093,-0.840676,-0.888369,-0.863073,-0.88853,-0.905126,-0.896103,-0.887241,-0.899648,-0.883213,-0.899809,-0.919949,-0.883858,-0.896909,-0.879507,-0.883858,-0.849055,-0.866939,-0.877413,-0.865167,-0.84406,-0.869034,-0.837454,-0.830364,-0.843254,-0.810707,-0.820052,-0.828109,-0.858561,-0.83552,-0.849538,-0.84986,-0.842288,-0.883052,-0.8642,-0.889819,-0.879507,-0.87419,-0.890141,-0.917855,-0.89288,-0.88563,-0.878702,-0.882246,-0.874512,-0.872095,-0.889013,-0.857111,-0.855661,-0.864684,-0.867745,-0.83262,-0.862106,-0.844221,-0.835843,-0.8642,-0.82118,-0.850344,-0.848249,-0.866778,-0.847605,-0.860978,-0.844704,-0.87129,-0.854694,-0.862428,-0.904965,-0.860978,-0.883696,-0.878218,-0.891914,-0.890141,-0.897392,-0.877413,-0.908832,-0.924944,-0.90432,-0.934289,-0.937028,-0.927522,-0.916727,-0.934934,-0.920272,-0.933484,-0.925266,-0.958941,-0.932517,-0.937351,-0.98601,-0.930261,-0.98456,-0.961036,-0.962164,-0.975698,-0.99036,-0.990844,-0.995839,-1.003895,-0.995516,-1.010018,-0.985366,-1.028547,-0.985366,-1.01324,-1.024196,-1.005828,-1.008245,-1.024358,-1.022585,-1.002284,-1.01324,-0.983593,-1.006634,-1.0047,-1.006151,-1.011629,-1.007117,-0.987944,-1.000189,-1.000511,-0.966997,-0.989394,-0.94589,-0.980532,-0.982304,-0.941701,-0.964581,-0.956524,-0.915599,-0.953785,-0.929456,-0.917532,-0.956363,-0.891753,-0.935901,-0.916082,-0.909637,-0.911732,-0.914149,-0.916082,-0.923011,-0.908671,-0.929133,-0.938317,-0.931711,-0.933,-0.956686,-0.95733,-0.974731,-0.977309,-0.975859,-0.999545,-0.999061,-0.999383,-1.022102,-1.008729,-1.016463,-1.039987,-1.040953,-1.036764,-1.04482,-1.050137,-1.048365,-1.043048,-1.041759,-1.053038,-1.034831,-1.046432,-1.054166,-1.039664,-1.064961,-1.041437,-1.037248,-1.05771,-1.044337,-1.042081,-1.047721,-1.04337,-1.043854,-1.038859,-1.030964,-1.033381,-1.03467,-1.019202,-1.016301,-1.015174,-1.010823,-1.025002,-1.005023,-0.996483,-1.006634,-0.998256,-0.99036,-0.996322,-0.983754,-0.985204,-0.98601,-0.978437,-1.006473,-0.982465,-0.990199,-0.986171,-1.0018,-0.994389,-0.987621,-1.002123,-1.015335,-1.002445,-1.000672,-1.026774,-0.991166,-0.985849,-1.006956,-0.988588,-0.991166,-0.998094,-1.002767,-1.00035,-0.982949,-0.974248,-0.999706,-0.950563,-0.997128,-0.956041,-0.987138,-0.987138,-0.952657,-0.953946,-0.960714,-0.93155,-0.950563,-0.971026,-0.921399,-0.932517,-0.949274,-0.930745,-0.923816,-0.950241,-0.928328,-0.941701,-0.951207,-0.94009,-0.95878,-0.959264,-0.96168,-1.002284,-0.967159,-1.00035,-1.003089,-0.993422,-1.034347,-1.044498,-1.034025,-1.067055,-1.071245,-1.074467,-1.096058,-1.094608,-1.102986,-1.106692,-1.109914,-1.128766,-1.124093,-1.114587,-1.121515,-1.118615,-1.097186,-1.092996,-1.082846,-1.071406,-1.058355,-1.065766,-1.037731,-1.027419,-1.002767,-0.986332,-0.983593,-0.940734,-0.934289,-0.918983,-0.88998,-0.865167,-0.854211,-0.823436,-0.817797,-0.734173,-0.750769,-0.68777,-0.663279,-0.65909,-0.570149,-0.549686,-0.52439,-0.446728,-0.397263,-0.364555,-0.258857,-0.247579,-0.182162,-0.101439,-0.036989,0.049857,0.071609,0.168122,0.218232,0.287515,0.366305,0.419638,0.465558,0.508417,0.548054,0.578346,0.616532,0.654074,0.690489,0.725292,0.762834,0.79667,0.828251,0.857092,0.880455,0.908491,0.926859,0.947967,0.960373,0.967463,0.977292,0.986637,0.98422,0.986637,0.989054,0.970041,0.959407,0.949095,0.917675,0.888511,0.862409,0.79812,0.763478,0.709985,0.672604,0.594941,0.497622,0.485376,0.350837,0.291221,0.204536,0.111729,0.029716,-0.048751,-0.1704,-0.251285,-0.352793,-0.458974,-0.48427,-0.624287,-0.699693,-0.763337,-0.838098,-0.914793,-0.963292,-0.998256,-1.02613,-1.031447,-1.033864,-1.02758,-1.044337,-1.034992,-1.016785,-1.040148,-1.044337,-1.033542,-1.03467,-1.047076,-1.046109,-1.042242,-1.051104,-1.065283,-1.06625,-1.055616,-1.066089,-1.066572,-1.069795,-1.088968,-1.075434,-1.096863,-1.099119,-1.084618,-1.095574,-1.09348,-1.081718,-1.102825,-1.098636,-1.096541,-1.102986,-1.093802,-1.099441,-1.108464,-1.11781,-1.117971,-1.137789,-1.129733,-1.121032,-1.126671,-1.126671,-1.116521,-1.122643,-1.121676,-1.121515,-1.112815,-1.110398,-1.122804,-1.120549,-1.14375,-1.138595,-1.119421,-1.128605,-1.1336,-1.116843,-1.124416,-1.126671,-1.114426,-1.114748,-1.112331,-1.121999,-1.112331,-1.120388,-1.122643,-1.128444,-1.123288,-1.129733,-1.120065,-1.107498,-1.12361,-1.12071,-1.115554,-1.109753,-1.124093,-1.112331,-1.108303,-1.111526,-1.09203,-1.110076,-1.106209,-1.121354,-1.099925,-1.10782,-1.102825,-1.09203,-1.090096,-1.104275,-1.070922,-1.098152,-1.098475,-1.078495,-1.094447,-1.073178,-1.076078,-1.08784,-1.077529,-1.065283,-1.088163,-1.065283,-1.055616,-1.071245,-1.046593,-1.054327,-1.042726,-1.036442,-1.02758,-1.024358,-1.032575,-1.02468,-1.019202,-1.018718,-1.024035,-1.000995,-1.008406,-0.999706,-1.001478,-0.988588,-0.995033,-0.991488,-0.996322,-0.980371,-0.972315,-0.997933,-0.973281,-0.968609,-0.990683,-0.976504,-0.991972,-0.978276,-0.967159,-0.99455,-0.955719,-0.957813,-0.986171,-0.930422,-0.964097,-0.948629,-0.957169,-0.95878,-0.936706,-0.918016,-0.945568,-0.915116,-0.908671,-0.939123,-0.88853,-0.916405,-0.893364,-0.890464,-0.906093,-0.891914,-0.884985,-0.90722,-0.882085,-0.862589,-0.891591,-0.881602,-0.879507,-0.877251,-0.878863,-0.865167,-0.896425,-0.884341,-0.896909,-0.874996,-0.866617,-0.886597,-0.854855,-0.870806,-0.88998,-0.896425,-0.888369,-0.907059,-0.902548,-0.900453,-0.89562,-0.913343,-0.916243,-0.89288,-0.907382,-0.906898,-0.905287,-0.924944,-0.916888,-0.919949,-0.924622,-0.901742,-0.894169,-0.921722,-0.913343,-0.93864,-0.921561,-0.925589,-0.935417,-0.930745,-0.934612,-0.94444,-0.958297,-0.925266,-0.981338,-0.940573,-0.953463,-0.961036,-0.973604,-0.958136,-0.96023,-0.959586,-0.976182,-0.972315,-0.975376,-1.004217,-0.964581,-0.98601,-0.985043,-0.979404,-0.992616,-0.994872,-0.975376,-0.99455,-0.986332,-0.997772,-1.012596,-0.96442,-1.001961,-0.984399,-0.979082,-0.985204,-0.990683,-0.988588,-0.984399,-0.976987,-0.952657,-0.987782,-0.961358,-0.975859,-0.962647,-0.971509,-0.984399,-0.969898,-0.958297,-0.961358,-0.973281,-0.950724,-0.977471,-0.942668,-0.969575,-0.969898,-0.966836,-0.967481,-0.960391,-0.967481,-0.979726,-0.971026,-0.965225,-0.98021,-0.943312,-0.962808,-0.959586,-0.957813,-0.966192,-0.942507,-0.957008,-0.97602,-0.965547,-0.969575,-0.991327,-0.94589,-0.970542,-0.962969,-0.971187,-0.978115,-0.988105,-0.967642,-0.982627,-1.006151,-1.007278,-1.009534,-1.012757,-1.002123,-1.002928,-0.995194,-0.995839,-0.993422,-1.005828,-1.00035,-0.99455,-0.991972,-1.01469,-0.960553,-0.978276,-1.013079,-0.971187,-0.976987,-0.997933,-0.991972,-0.984882,-0.974248,-0.978276,-0.995516,-0.982304,-0.978598,-0.990038,-0.980693,-0.986977,-0.985204,-0.991811,-1.000511,-0.986655,-0.98166,-0.996322,-1.005667,-0.998094,-1.00889,-1.004056,-1.0018,-1.000028,-0.999061,-0.994227,-1.013885,-1.003089,-0.996483,-1.012596,-1.001317,-1.013562,-1.01034,-1.016624,-1.022746,-1.00889,-1.021619,-1.035153,-1.005184,-1.022908,-1.016624,-1.012918,-1.040792,-1.017268,-1.014046,-1.008084,-1.020491,-1.006312,-1.020007,-1.010662,-1.015335,-1.011951,-1.016946,-1.038537,-1.014851,-1.014368,-1.006312,-1.011629,-0.9931,-1.016301,-1.009534,-0.991811,-1.015657,-1.017913,-1.015979,-1.013401,-1.034347,-1.023713,-1.021457,-1.012596,-1.015012,-1.02468,-1.014368,-1.043209,-1.001478,-1.045465,-1.031447,-1.031608,-1.046593,-1.042726,-1.040953,-1.055455,-1.056905,-1.038537,-1.05626,-1.045787,-1.060288,-1.053199,-1.068183,-1.049332,-1.061416,-1.059322,-1.060449,-1.054004,-1.060611,-1.084135,-1.060288,-1.088807,-1.083651,-1.07624,-1.089291,-1.105081,-1.081879,-1.09493,-1.09928,-1.089774,-1.109753,-1.102019,-1.111687,-1.124093,-1.124899,-1.115876,-1.120388,-1.131022,-1.128605,-1.124577,-1.129572,-1.130377,-1.12216,-1.134889,-1.135533,-1.119421,-1.141011,-1.131022,-1.129572,-1.131183,-1.13795,-1.135694,-1.137789,-1.132794,-1.144234,-1.139561,-1.142623,-1.147134,-1.149068,-1.138756,-1.141656,-1.135533,-1.137789,-1.155513,-1.138917,-1.142945,-1.150034,-1.142623,-1.155513,-1.150034,-1.137144,-1.157929,-1.165663,-1.150034,-1.166308,-1.160185,-1.156157,-1.16373,-1.15664,-1.174847,-1.157768,-1.164213,-1.154707,-1.145845,-1.156963,-1.163408,-1.15938,-1.159218,-1.17662,-1.172592,-1.180487,-1.16083,-1.168241,-1.157607,-1.182904,-1.169369,-1.17517,-1.194182,-1.176298,-1.196921,-1.182259,-1.175331,-1.172592,-1.186609,-1.185643,-1.191927,-1.183548,-1.197083,-1.204494,-1.165663,-1.187093,-1.17517,-1.18532,-1.200305,-1.193538,-1.189832,-1.194021,-1.189187,-1.187415,-1.199983,-1.195149,-1.187254,-1.185159,-1.194505,-1.194505,-1.185482,-1.191282,-1.194505,-1.199983,-1.182581,-1.194827,-1.195471,-1.210617,-1.191282,-1.19821,-1.198049,-1.195471,-1.222218,-1.199499,-1.186932,-1.200788,-1.230274,-1.173397,-1.202722,-1.214484,-1.21964,-1.203044,-1.204333,-1.209328,-1.22399,-1.193538,-1.184837,-1.232208,-1.176136,-1.204816,-1.225279,-1.196599,-1.206428,-1.21964,-1.199016,-1.204816,-1.213195,-1.208361,-1.209811,-1.201111,-1.212873,-1.210134,-1.218995,-1.201111,-1.224151,-1.205622,-1.210456,-1.221251,-1.197244,-1.22254,-1.199983,-1.212228,-1.212228,-1.199822,-1.220929,-1.206267,-1.212712,-1.224796,-1.204011,-1.201916,-1.224796,-1.203044,-1.205461,-1.212067,-1.2111,-1.204816,-1.223346,-1.206911,-1.232046,-1.197888,-1.213034,-1.230757,-1.201594,-1.211584,-1.228179,-1.205622,-1.219318,-1.200305,-1.217545,-1.204978,-1.208683,-1.206428,-1.226407,-1.206911,-1.21819,-1.207878,-1.222218,-1.208361,-1.220123,-1.225763,-1.216901,-1.207717,-1.217545,-1.204978,-1.198533,-1.204816,-1.207072,-1.215128,-1.210456,-1.224151,-1.201594,-1.204011,-1.226246,-1.203689,-1.214967,-1.195955,-1.207878,-1.22544,-1.193538,-1.220929,-1.204816,-1.203205,-1.211261,-1.214484,-1.211906,-1.211584,-1.220284,-1.193216,-1.207556,-1.200466,-1.197727,-1.200949,-1.213195,-1.189993,-1.211261,-1.214323,-1.215934,-1.187415,-1.196438,-1.213195,-1.196277,-1.189349,-1.203366,-1.196277,-1.168564,-1.203205,-1.181453,-1.190476,-1.196599,-1.178553,-1.193699,-1.185804,-1.188382,-1.193377,-1.165019,-1.184837,-1.197405,-1.170175,-1.18806,-1.199661,-1.162763,-1.208845,-1.18097,-1.193377,-1.184515,-1.180487,-1.18806,-1.182581,-1.165019,-1.197083,-1.169853,-1.164697,-1.180326,-1.175009,-1.172431,-1.177748,-1.166308,-1.166308,-1.168725,-1.160668,-1.139884,-1.165502,-1.157285,-1.175009,-1.135372,-1.154868,-1.151807,-1.155351,-1.147456,-1.151001,-1.130861,-1.134405,-1.137144,-1.119743,-1.151001,-1.137306,-1.141334,-1.149551,-1.14794,-1.131344,-1.149873,-1.146006,-1.161796,-1.143267,-1.134244,-1.160346,-1.135533,-1.155835,-1.141817,-1.125866,-1.143589,-1.135694,-1.140206,-1.167758,-1.151001,-1.154707,-1.169047,-1.127155,-1.151968,-1.151162,-1.136017,-1.137144,-1.154224,-1.129249,-1.14794,-1.161152,-1.138111,-1.146006,-1.128927,-1.15664,-1.135211,-1.14085,-1.140689,-1.151484,-1.137467,-1.140206,-1.154868,-1.126994,-1.1423,-1.131183,-1.132794,-1.1336,-1.12651,-1.112976,-1.133439,-1.113298,-1.110559,-1.119421,-1.091707,-1.136983,-1.082523,-1.105564,-1.098636,-1.075917,-1.088807,-1.089291,-1.080429,-1.075112,-1.101375,-1.083007,-1.122321,-1.085101,-1.109914,-1.103147,-1.112815,-1.116198,-1.13505,-1.109753,-1.11362,-1.140367,-1.130377,-1.156157,-1.127477,-1.136178,-1.143912,-1.160507,-1.114909,-1.141656,-1.13215,-1.108303,-1.157124,-1.111042,-1.097991,-1.114426,-1.110881,-1.097025,-1.103792,-1.094608,-1.09058,-1.070439,-1.070439,-1.08639,-1.02758,-1.085262,-1.053199,-1.07205,-1.045465,-1.057388,-1.038053,-1.050782,-1.040953,-1.03902,-1.063672,-1.035959,-1.089935,-1.035797,-1.079945,-1.073823,-1.081234,-1.075756,-1.091063,-1.087035,-1.096058,-1.117648,-1.093963,-1.128121,-1.105403,-1.123771,-1.122321,-1.127155,-1.114909,-1.126671,-1.117487,-1.12071,-1.133439,-1.093963,-1.130216,-1.107175,-1.101858,-1.104597,-1.093158,-1.10637,-1.102986,-1.079623,-1.058033,-1.068828,-1.037086,-1.065928,-1.036925,-1.049654,-1.049654,-0.998739,-1.019846,-1.039503,-0.980532,-0.988427,-0.996483,-0.961519,-0.983593,-0.952657,-0.961197,-0.952335,-0.949596,-0.954591,-0.929133,-0.918983,-0.942829,-0.950885,-0.909154,-0.947985,-0.939768,-0.924783,-0.940412,-0.951852,-0.932195,-0.925266,-0.935739,-0.908026,-0.970059,-0.924139,-0.916243,-0.913182,-0.912215,-0.921722,-0.918177,-0.911732,-0.929456,-0.900292,-0.891914,-0.938962,-0.889658,-0.899003,-0.908187,-0.895136,-0.917049,-0.935095,-0.930422,-0.904481,-0.897714,-0.918499,-0.9301,-0.909315,-0.931872,-0.913504,-0.936384,-0.940251,-0.916727,-0.935256,-0.942507,-0.932839,-0.944924,-0.991005,-0.961519,-0.960714,-0.962325,-0.955074,-0.949918,-0.956524,-0.948146,-0.941862,-0.934934,-0.950885,-0.973926,-0.908348,-0.947018,-0.944762,-0.893847,-0.93155,-0.920272,-0.901903,-0.913988,-0.927039,-0.92011,-0.908832,-0.891753,-0.904159,-0.900453,-0.907704,-0.919949,-0.892397,-0.910443,-0.922366,-0.895781,-0.919788,-0.916888,-0.898681,-0.919949,-0.932034,-0.933645,-0.926072,-0.972637,-0.950563,-0.932839,-0.972959,-0.956041,-0.962486,-0.975054,-0.97167,-1.002767,-0.985204,-0.993744,-1.016946,-1.00744,-1.008567,-1.022746,-1.006956,-1.019363,-1.048043,-1.019524,-1.040631,-1.01179,-1.03902,-1.023069,-1.011629,-1.022102,-1.02178,-1.046432,-1.025647,-1.03048,-1.009695,-1.022746,-1.001478,-1.024035,-1.012112,-1.02613,-1.000672,-0.991811,-0.999545,-0.995839,-0.976504,-0.964903,-0.994872,-0.953463,-0.979565,-0.987299,-0.954108,-0.954108,-0.979887,-0.974409,-0.966353,-0.974248,-0.958458,-0.999545,-0.985688,-0.981338,-1.001478,-0.963292,-0.963131,-0.992294,-0.998417,-0.969414,-1.022746,-0.997933,-1.004862,-0.995839,-0.99745,-0.981176,-1.01034,-1.011145,-1.013401,-0.995678,-1.018396,-1.03902,-1.015979,-1.041276,-1.041437,-1.063833,-1.058194,-1.079945,-1.071406,-1.093641,-1.08639,-1.0677,-1.112009,-1.09493,-1.093963,-1.082523,-1.097991,-1.09493,-1.105403,-1.092191,-1.10782,-1.086551,-1.073984,-1.106531,-1.067378,-1.089613,-1.074628,-1.082684,-1.077851,-1.079945,-1.061416,-1.07769,-1.054327,-1.048365,-1.080429,-1.033864,-1.07205,-1.053521,-1.054004,-1.060611,-1.066411,-1.055455,-1.072695,-1.065928,-1.045948,-1.08494,-1.054004,-1.070922,-1.078495
 18:29:20.54243,-1.093641,-1.076078,-1.095091,-1.081718,-1.084779,-1.074306,-1.054971,-1.096863,-1.044981,-1.072211,-1.054004,-1.071567,-1.087035,-1.064961,-1.036281,-1.074306,-1.034992,-1.029675,-1.052071,-1.02178,-1.054488,-1.033864,-1.039664,-1.029352,-1.034025,-1.045787,-1.037892,-1.034508,-1.01614,-1.036603,-1.025002,-1.03193,-1.007923,-1.038053,-1.005506,-1.007601,-1.007923,-1.001961,-1.010662,-0.998417,-1.011951,-1.002123,-1.003895,-1.003089,-0.985849,-0.996,-1.008729,-0.987782,-1.004539,-1.011468,-0.974893,-1.016946,-0.971992,-1.00035,-0.999867,-1.005989,-0.99455,-0.996644,-0.985688,-1.021135,-0.987299,-0.995516,-1.042242,-0.972315,-1.004378,-1.026774,-1.023552,-1.032092,-1.020007,-1.027419,-1.029675,-1.036281,-1.028063,-1.05191,-1.02468,-1.047398,-1.037409,-1.026452,-1.051265,-1.039987,-1.006956,-1.030319,-1.044981,-1.023713,-1.066572,-1.037892,-1.048848,-1.070117,-1.063672,-1.049654,-1.060127,-1.059966,-1.083973,-1.093158,-1.091546,-1.111042,-1.094608,-1.113459,-1.12071,-1.091224,-1.123932,-1.139722,-1.11217,-1.115554,-1.115393,-1.115393,-1.10927,-1.092674,-1.095252,-1.07205,-1.063833,-1.065928,-1.036925,-1.020813,-1.011951,-0.966836,-0.973604,-0.965386,-0.934289,-0.905609,-0.902548,-0.867262,-0.833909,-0.850988,-0.809096,-0.767526,-0.76527,-0.747869,-0.715,-0.690025,-0.680519,-0.651839,-0.599957,-0.564671,-0.548881,-0.483787,-0.482659,-0.418854,-0.384212,-0.344414,-0.256118,-0.211326,-0.192635,-0.084038,-0.063414,0.022143,0.07902,0.123813,0.192291,0.28381,0.336658,0.380807,0.426566,0.452185,0.489727,0.524208,0.556916,0.587369,0.623944,0.655524,0.683077,0.710629,0.737054,0.758806,0.771857,0.794736,0.804565,0.813588,0.825673,0.828251,0.825511,0.829862,0.825028,0.818422,0.820517,0.812621,0.795542,0.776529,0.757678,0.733831,0.688233,0.627972,0.594297,0.573673,0.518246,0.459597,0.370656,0.350837,0.242078,0.194385,0.112373,0.035194,-0.051974,-0.123835,-0.209714,-0.322501,-0.413214,-0.485237,-0.576272,-0.67778,-0.74368,-0.833103,-0.876929,-0.96168,-1.000511,-1.043531,-1.0735,-1.088646,-1.104114,-1.09203,-1.090902,-1.097508,-1.07769,-1.082523,-1.093963,-1.094285,-1.092674,-1.097669,-1.091224,-1.103631,-1.103308,-1.116682,-1.12071,-1.133116,-1.129249,-1.136339,-1.128121,-1.13215,-1.128444,-1.119099,-1.129733,-1.128283,-1.152612,-1.16228,-1.15229,-1.146812,-1.143912,-1.134083,-1.147295,-1.167919,-1.169369,-1.158574,-1.138917,-1.14649,-1.159541,-1.179359,-1.167758,-1.171142,-1.152129,-1.139722,-1.166952,-1.182098,-1.181615,-1.175653,-1.165019,-1.151807,-1.165663,-1.148745,-1.171786,-1.181937,-1.186126,-1.194182,-1.171303,-1.181937,-1.168725,-1.163408,-1.169691,-1.154546,-1.160507,-1.172269,-1.158413,-1.165502,-1.168564,-1.14794,-1.159057,-1.168725,-1.172269,-1.160991,-1.163891,-1.163408,-1.16373,-1.156318,-1.158896,-1.16373,-1.162441,-1.165341,-1.15664,-1.161474,-1.161635,-1.164213,-1.159863,-1.160185,-1.149229,-1.145039,-1.159863,-1.147295,-1.167113,-1.148906,-1.156963,-1.145523,-1.151323,-1.144073,-1.162602,-1.145684,-1.139884,-1.169208,-1.12071,-1.150034,-1.138595,-1.140689,-1.129088,-1.137789,-1.128605,-1.126188,-1.123449,-1.130377,-1.134083,-1.125382,-1.128121,-1.101375,-1.134244,-1.116359,-1.109592,-1.122804,-1.109914,-1.116682,-1.110559,-1.142945,-1.105564,-1.122965,-1.116359,-1.129088,-1.12071,-1.133277,-1.122321,-1.127316,-1.121838,-1.126188,-1.149873,-1.119743,-1.136178,-1.142945,-1.147456,-1.131988,-1.153901,-1.127316,-1.147456,-1.144878,-1.151001,-1.161635,-1.129894,-1.157607,-1.150034,-1.144395,-1.146973,-1.16518,-1.150679,-1.144556,-1.151484,-1.158413,-1.161313,-1.150518,-1.164213,-1.173558,-1.169853,-1.156318,-1.15229,-1.150679,-1.159863,-1.144395,-1.1336,-1.156157,-1.119743,-1.152451,-1.14649,-1.127155,-1.133922,-1.147456,-1.120388,-1.136339,-1.131183,-1.123771,-1.141011,-1.111848,-1.128766,-1.15084,-1.133116,-1.132633,-1.141978,-1.123771,-1.144556,-1.144556,-1.152451,-1.164697,-1.141817,-1.158413,-1.14939,-1.150518,-1.156318,-1.152129,-1.164374,-1.158574,-1.163569,-1.158735,-1.171786,-1.149068,-1.167113,-1.158896,-1.156157,-1.162441,-1.168402,-1.159863,-1.163085,-1.170658,-1.168402,-1.16228,-1.161152,-1.173397,-1.161474,-1.15664,-1.164052,-1.172592,-1.140045,-1.15229,-1.151968,-1.145845,-1.146973,-1.126027,-1.1365,-1.152451,-1.111848,-1.134405,-1.137789,-1.112815,-1.112009,-1.140689,-1.122804,-1.122804,-1.105403,-1.114587,-1.100569,-1.092352,-1.11362,-1.097669,-1.070439,-1.113137,-1.058999,-1.067861,-1.082362,-1.05046,-1.045465,-1.051426,-1.045465,-1.024519,-1.027741,-1.009534,-1.002928,-1.033703,-0.989716,-1.010984,-1.000511,-0.991972,-1.015174,-0.996483,-1.009212,-1.006956,-0.991327,-0.991811,-0.998578,-0.96587,-1.013885,-0.999222,-0.982627,-1.016463,-0.979565,-0.991327,-0.985849,-0.967803,-0.965547,-0.993422,-0.960714,-0.976504,-0.96587,-0.977148,-0.989716,-0.956847,-0.999061,-0.992133,-0.981176,-0.97022,-1.013723,-0.961842,-0.993261,-1.007278,-0.982304,-0.989233,-0.983593,-0.985688,-0.996805,-0.973926,-0.944279,-0.961197,-0.956686,-0.951207,-0.961036,-0.925589,-0.942668,-0.922366,-0.917855,-0.915277,-0.893203,-0.871612,-0.903192,-0.891269,-0.889819,-0.913343,-0.883858,-0.911893,-0.87274,-0.917049,-0.890786,-0.880635,-0.894653,-0.909476,-0.890947,-0.906737,-0.911893,-0.895942,-0.923494,-0.916727,-0.918016,-0.939929,-0.910282,-0.934934,-0.951691,-0.927844,-0.939445,-0.978115,-0.945407,-0.95733,-0.966192,-0.977148,-0.98311,-0.979726,-0.968609,-0.991327,-0.975859,-0.970381,-0.998094,-0.96023,-0.968286,-0.957169,-0.980854,-0.933806,-0.936545,-0.926072,-0.945568,-0.924783,-0.941379,-0.93864,-0.9243,-0.95878,-0.884502,-0.906576,-0.933,-0.903354,-0.918177,-0.894975,-0.879668,-0.891753,-0.892719,-0.871934,-0.866134,-0.888208,-0.88273,-0.871934,-0.890625,-0.894331,-0.88563,-0.857755,-0.884985,-0.870162,-0.874996,-0.895136,-0.877735,-0.910765,-0.89288,-0.874029,-0.861461,-0.899809,-0.87709,-0.900131,-0.910282,-0.863234,-0.887724,-0.922044,-0.887724,-0.905287,-0.879024,-0.885308,-0.925428,-0.878702,-0.893847,-0.910765,-0.880796,-0.925428,-0.886597,-0.897875,-0.889336,-0.906254,-0.903515,-0.886597,-0.879991,-0.893686,-0.868228,-0.862428,-0.878218,-0.8584,-0.887563,-0.883696,-0.882246,-0.896909,-0.88998,-0.874029,-0.916888,-0.928167,-0.888047,-0.90577,-0.938479,-0.932517,-0.936384,-0.94734,-0.924461,-0.921883,-0.932678,-0.940734,-0.951368,-0.930422,-0.975376,-0.941379,-0.933323,-0.95443,-0.932517,-0.933967,-0.947824,-0.943957,-0.949596,-0.955719,-0.921883,-0.958458,-0.925105,-0.960391,-0.950885,-0.935256,-0.94879,-0.958619,-0.95733,-0.95588,-0.983432,-0.941218,-0.978598,-0.96877,-0.987782,-0.992455,-1.019041,-1.001156,-1.010501,-1.01614,-1.019041,-1.014851,-1.005345,-1.030803,-1.00889,-1.022424,-1.014851,-1.033381,-1.015496,-1.020168,-1.033381,-1.042726,-1.054166,-1.034831,-1.062866,-1.035314,-1.042887,-1.049976,-1.047559,-1.04337,-1.070117,-1.051588,-1.050943,-1.071406,-1.050299,-1.066411,-1.056744,-1.073984,-1.072373,-1.087196,-1.071567,-1.079301,-1.078495,-1.086713,-1.085585,-1.083329,-1.098475,-1.085424,-1.097025,-1.095897,-1.092996,-1.098797,-1.095091,-1.094124,-1.075917,-1.09493,-1.080912,-1.091546,-1.071084,-1.08494,-1.071245,-1.069472,-1.072373,-1.076078,-1.056421,-1.065766,-1.091546,-1.066733,-1.088968,-1.089774,-1.09638,-1.08059,-1.10637,-1.086229,-1.106047,-1.104436,-1.092352,-1.11072,-1.086551,-1.109914,-1.089291,-1.100247,-1.106209,-1.108464,-1.098475,-1.110076,-1.109431,-1.095736,-1.109592,-1.105403,-1.117004,-1.101375,-1.095252,-1.116359,-1.092674,-1.092835,-1.090096,-1.068989,-1.07205,-1.074306,-1.061577,-1.067378,-1.039503,-1.055132,-1.050943,-1.043692,-1.035153,-1.051749,-1.025485,-1.027419,-1.064155,-1.02758,-1.053199,-1.058838,-1.053843,-1.063511,-1.07769,-1.067378,-1.095736,-1.089291,-1.087035,-1.127477,-1.091707,-1.112654,-1.119099,-1.128121,-1.115393,-1.12506,-1.132472,-1.126027,-1.113781,-1.116843,-1.137144,-1.07769,-1.134889,-1.110076,-1.101375,-1.115876,-1.113459,-1.09493,-1.091546,-1.092191,-1.066894,-1.096541,-1.086874,-1.093963,-1.067378,-1.08639,-1.071728,-1.066894,-1.072534,-1.053199,-1.05191,-1.035797,-1.054166,-1.048204,-1.043854,-1.036442,-1.023874,-1.014529,-1.023069,-1.018396,-1.039342,-1.014851,-1.003573,-1.055293,-1.035475,-1.036281,-1.047721,-1.0619,-1.055616,-1.050943,-1.049815,-1.085585,-1.06335,-1.060288,-1.105242,-1.08204,-1.098314,-1.095736,-1.104275,-1.10782,-1.110237,-1.097508,-1.112976,-1.110076,-1.111042,-1.12506,-1.105564,-1.119099,-1.116521,-1.116359,-1.122643,-1.121515,-1.11362,-1.122482,-1.109753,-1.121999,-1.117004,-1.116521,-1.132794,-1.11507,-1.12216,-1.121999,-1.13215,-1.128766,-1.133922,-1.113943,-1.128927,-1.136178,-1.131022,-1.129088,-1.132794,-1.127477,-1.120549,-1.13215,-1.127316,-1.124738,-1.125221,-1.129894,-1.149873,-1.107659,-1.145684,-1.133761,-1.121515,-1.145684,-1.15084,-1.125543,-1.134566,-1.121999,-1.121676,-1.147295,-1.116682,-1.141334,-1.118293,-1.132955,-1.1423,-1.128605,-1.123288,-1.143267,-1.126188,-1.121999,-1.151646,-1.11072,-1.12941,-1.12941,-1.136661,-1.132794,-1.122643,-1.13795,-1.132794,-1.138595,-1.131022,-1.149712,-1.124254,-1.135372,-1.128766,-1.133922,-1.130216,-1.137467,-1.141656,-1.145684,-1.142945,-1.109914,-1.141172,-1.098636,-1.135211,-1.125705,-1.115393,-1.12941,-1.125382,-1.10927,-1.129088,-1.112815,-1.106047,-1.130216,-1.095252,-1.106853,-1.108948,-1.117004,-1.115393,-1.109109,-1.085262,-1.068828,-1.040631,-1.032897,-1.044176,-0.982465,-1.028547,-0.995355,-0.972153,-0.981015,-0.976504,-0.977148,-0.970059,-0.989877,-0.991005,-1.015012,-1.008084,-1.037892,-1.047076,-1.060611,-1.079301,-1.101053,-1.09638,-1.130538,-1.145362,-1.140689,-1.154224,-1.168402,-1.146812,-1.159702,-1.158413,-1.164213,-1.161313,-1.156479,-1.153579,-1.157607,-1.146328,-1.157607,-1.141495,-1.149229,-1.1365,-1.130538,-1.136983,-1.124577,-1.099603,-1.117648,-1.093319,-1.084296,-1.093158,-1.059322,-1.088807,-1.067378,-1.045304,-1.080107,-1.065605,-1.059322,-1.054004,-1.036603,-1.035797,-1.066733,-1.006473,-1.027741,-1.034347,-1.01179,-1.018235,-1.012596,-0.982788,-1.017107,-1.020491,-0.969414,-1.011468,-0.968609,-0.993744,-0.987944,-0.962164,-0.977954,-0.970542,-0.939929,-0.979082,-0.949757,-0.944924,-0.992777,-0.940251,-0.959747,-0.939445,-0.926072,-0.926555,-0.940412,-0.91866,-0.907382,-0.895458,-0.918821,-0.913827,-0.900131,-0.911249,-0.875962,-0.891269,-0.896586,-0.901742,-0.889819,-0.91721,-0.918821,-0.931389,-0.927844,-0.924783,-0.932678,-0.950402,-0.932195,-0.95733,-0.980854,-0.947501,-0.982143,-0.968609,-0.981499,-1.00035,-0.980532,-0.971026,-1.009534,-0.990038,-1.001478,-1.005667,-0.993905,-1.006795,-1.012273,-1.004378,-1.003412,-0.981499,-0.996322,-0.995839,-0.9931,-0.995355,-0.998256,-1.003573,-0.992938,-0.989071,-0.971348,-0.984238,-0.981499,-0.978598,-1.0018,-1.001639,-0.987782,-1.001156,-0.987782,-0.991327,-1.006634,-0.981176,-1.001478,-0.9931,-0.984721,-1.004217,-0.985366,-1.003089,-1.004056,-1.011307,-1.024035,-1.015657,-0.999706,-1.048043,-1.016946,-1.001961,-1.045948,-1.010018,-1.016301,-1.018718,-1.029514,-1.034508,-1.018879,-1.01759,-1.040148,-1.024358,-1.030319,-1.035636,-1.013401,-1.03902,-1.024196,-1.022585,-1.018396,-1.005828,-0.997128,-1.006312,-1.009695,-0.999706,-0.996644,-1.025808,-1.016301,-1.021296,-1.013885,-1.006634,-1.011145,-0.992133,-1.012918,-1.021941,-0.994711,-1.032092,-1.008406,-0.995033,-1.012918,-1.006312,-0.995678,-1.017913,-0.969414,-0.995516,-0.97167,-0.953946,-0.952819,-0.940734,-0.969737,-0.923172,-0.936062,-0.946051,-0.924622,-0.915277,-0.930906,-0.92285,-0.890302,-0.922527,-0.900937,-0.893686,-0.900776,-0.9272,-0.899487,-0.923172,-0.894975,-0.903354,-0.922688,-0.903031,-0.920755,-0.893364,-0.908671,-0.907704,-0.927683,-0.90722,-0.943312,-0.924783,-0.903515,-0.953946,-0.928167,-0.948629,-0.945729,-0.930745,-0.937028,-0.937995,-0.931711,-0.942023,-0.92285,-0.951368,-0.964581,-0.924622,-0.963614,-0.932195,-0.935901,-0.961036,-0.971992,-0.942184,-0.958297,-0.976826,-0.966192,-0.974409,-0.944601,-0.973765,-0.948468,-0.982788,-0.966353,-0.98456,-0.966192,-0.976987,-0.956041,-0.925911,-0.969898,-0.92575,-0.949274,-0.933323,-0.940895,-0.94589,-0.947018,-0.920433,-0.950402,-0.945568,-0.921883,-0.97022,-0.908509,-0.956686,-0.933645,-0.935256,-0.977954,-0.936223,-0.938156,-0.95298,-0.950079,-0.956363,-0.962969,-0.943473,-0.994389,-0.96442,-0.966192,-0.982627,-0.975537,-0.985366,-0.995033,-0.996322,-0.990199,-1.017107,-0.974893,-0.989716,-0.97167,-0.98456,-0.996161,-0.991649,-0.979404,-0.989716,-0.987944,-0.980854,-1.009373,-0.972153,-0.993905,-1.010018,-0.998256,-0.9989,-1.032414,-0.984077,-0.982465,-1.001156,-1.006795,-1.006473,-0.975215,-1.015657,-1.026613,-0.978921,-1.008729,-1.019524,-1.016463,-1.025485,-1.044659,-1.039987,-1.044498,-1.055938,-1.064961,-1.058355,-1.072373,-1.076562,-1.070117,-1.083651,-1.093963,-1.10782,-1.090741,-1.101053,-1.108625,-1.097508,-1.106047,-1.094285,-1.088968,-1.066572,-1.069472,-1.052877,-1.045787,-1.025163,-1.050299,-1.005506,-0.984077,-1.007278,-0.970381,-0.963292,-0.959102,-0.934612,-0.913021,-0.916566,-0.855661,-0.846316,-0.840193,-0.808613,-0.787022,-0.751736,-0.73079,-0.69212,-0.656834,-0.62912,-0.569021,-0.516656,-0.506344,-0.438188,-0.386307,-0.328624,-0.257568,-0.2392,-0.156705,-0.065347,-0.011693,0.032939,0.108506,0.170861,0.227094,0.315551,0.364694,0.415771,0.448962,0.490049,0.525497,0.558527,0.597036,0.637317,0.673087,0.706762,0.749138,0.779107,0.813749,0.843557,0.869337,0.896568,0.914291,0.932176,0.949578,0.953606,0.96569,0.975519,0.967624,0.976486,0.972135,0.958601,0.947322,0.94265,0.917353,0.872882,0.822289,0.799409,0.714496,0.66068,0.621688,0.541126,0.480059,0.413676,0.345198,0.227255,0.166189,0.065969,-0.037795,-0.10015,-0.227438,-0.299138,-0.409508,-0.473797,-0.573694,-0.669885,-0.764787,-0.821664,-0.893042,-0.95588,-0.996483,-1.033703,-1.01759,-1.050299,-1.044015,-1.035636,-1.05191,-1.058033,-1.041598,-1.045948,-1.053521,-1.047559,-1.062383,-1.068183,-1.0648,-1.051104,-1.075595,-1.076884,-1.079945,-1.088163,-1.098475,-1.095413,-1.103308,-1.113459,-1.111365,-1.109592,-1.118776,-1.131183,-1.117971,-1.136017,-1.123449,-1.119421,-1.122482,-1.109431,-1.118132,-1.124093,-1.141978,-1.144395,-1.147617,-1.135855,-1.127316,-1.114587,-1.159057,-1.152451,-1.149712,-1.152451,-1.128605,-1.123127,-1.153096,-1.168725,-1.154707,-1.152935,-1.140528,-1.142623,-1.149229,-1.155674,-1.16808,-1.163408,-1.165341,-1.148101,-1.14794,-1.151162,-1.134405,-1.15084,-1.172914,-1.15938,-1.162441,-1.158574,-1.154224,-1.151323,-1.141656,-1.14939,-1.147456,-1.14649,-1.132311,-1.133277,-1.142461,-1.150518,-1.143912,-1.131827,-1.146328,-1.146167,-1.145684,-1.137467,-1.146973,-1.1365,-1.137789,-1.143428,-1.137467,-1.133439,-1.128766,-1.1336,-1.128605,-1.126188,-1.133116,-1.130216,-1.131344,-1.136661,-1.135372,-1.134405,-1.146328,-1.126671,-1.143267,-1.152451,-1.143428,-1.140528,-1.144717,-1.137467,-1.133277,-1.139722,-1.130699,-1.135694,-1.126027,-1.133761,-1.126832,-1.140367,-1.1365,-1.136339,-1.138917,-1.136339,-1.133761,-1.124254,-1.154224,-1.133116,-1.132955,-1.128927,-1.14375,-1.129249,-1.14375,-1.140528,-1.131827,-1.143912,-1.12506,-1.140528,-1.133922,-1.135372,-1.135533,-1.143267,-1.134405,-1.12216,-1.119904,-1.133277,-1.141978,-1.121999,-1.141817,-1.131666,-1.131505,-1.138111,-1.134083,-1.121676,-1.12941,-1.130216,-1.115393,-1.122321,-1.12216,-1.130538,-1.107981,-1.110881,-1.112492,-1.112009,-1.100892,-1.107981,-1.098797,-1.081396,-1.117165,-1.086068,-1.111203,-1.098636,-1.092674,-1.095252,-1.098475,-1.088968,-1.101697,-1.078334,-1.070922,-1.095574,-1.0648,-1.104436,-1.093963,-1.092996,-1.092996,-1.099925,-1.085262,-1.09058,-1.093963,-1.085101,-1.094124,-1.093802,-1.094447,-1.085585,-1.084457,-1.088002,-1.081396,-1.072856,-1.087035,-1.092352,-1.0677,-1.095897,-1.066089,-1.071406,-1.078818,-1.054971,-1.061416,-1.067055,-1.053682,-1.078012,-1.067055,-1.045465,-1.070761,-1.044659,-1.046109,-1.070439,-1.039503,-1.06915,-1.058677,-1.044659,-1.084296,-1.069311,-1.053199,-1.085585,-1.072211,-1.050621,-1.071889,-1.078334,-1.083007,-1.088646,-1.074628,-1.095413,-1.083329,-1.057871,-1.099925,-1.064155,-1.082362,-1.059483,-1.070278,-1.072534,-1.053038,-1.030641,-1.040309,-1.039987,-1.02033,-1.023552,-1.028386,-1.026452,-1.014851,-1.026452,-1.003895,-1.009856,-0.992777,-1.010823,-1.013885,-0.997772,-1.006151,-0.983754,-1.000995,-1.017429,-0.970542,-0.987621,-0.998417,-0.955397,-1.000511,-0.987621,-0.96587,-0.984238,-0.959586,-0.983271,-0.957652,-0.961519,-0.960391,-0.937512,-0.939284,-0.969575,-0.941701,-0.931067,-0.960714,-0.919949,-0.923655,-0.945568,-0.916888,-0.923011,-0.925589,-0.917532,-0.905287,-0.919305,-0.883213,-0.891108,-0.897714,-0.874673,-0.886597,-0.867262,-0.877896,-0.855016,-0.843577,-0.852761,-0.825853,-0.804585,-0.838421,-0.816347,-0.799912,-0.816669,-0.781705,-0.78815,-0.78106,-0.764626,-0.791695,-0.784122,-0.751575,-0.781866,-0.784122,-0.77091,-0.742391,-0.732079,-0.762048,-0.729501,-0.741746,-0.761081,-0.721122,-0.724345,-0.726439,-0.713388,-0.704527,-0.701787,-0.706782,-0.695826,-0.693248,-0.682936,-0.667629,-0.676813,-0.679391,-0.664407,-0.672463,-0.652967,-0.663601,-0.681486,-0.676169,-0.642655,-0.661345,-0.654578,-0.657639,-0.653128,-0.64475,-0.628959,-0.626704,-0.666662,-0.638627,-0.611236,-0.638949,-0.644588,-0.609463,-0.628959,-0.618003,-0.611719,-0.623642,-0.603502,-0.609786,-0.596735,-0.628959,-0.621064,-0.618003,-0.621709,-0.632504,-0.599796,-0.648294,-0.635404,-0.59899,-0.629765,-0.623481,-0.62477,-0.622031,-0.659412,-0.641205,-0.642172,-0.634921,-0.648294,-0.666501,-0.637821,-0.680519,-0.637499,-0.65909,-0.677297,-0.653772,-0.667951,-0.670852,-0.628476,-0.665857,-0.694537,-0.628798,-0.676974,-0.670368,-0.643299,-0.665535,-0.665051,-0.668757,-0.666662,-0.633471,-0.670046,-0.664407,-0.633149,-0.67633,-0.642816,-0.666985,-0.646844,-0.652806,-0.637016,-0.6491,-0.661345,-0.630409,-0.683742,-0.651839,-0.660379,-0.665696,-0.672302,-0.647005,-0.68068,-0.661829,-0.66779,-0.685675,-0.645072,-0.704204,-0.63476,-0.675846,-0.683742,-0.640721,-0.64765,-0.664729,-0.638466,-0.664729,-0.641205,-0.642655,-0.651356,-0.615103,-0.666018,-0.649583,-0.645394,-0.643783,-0.653772,-0.668596,-0.672785,-0.638143,-0.659573,-0.667146,-0.643299,-0.706621,-0.678747,-0.670852,-0.68777,-0.691637,-0.676974,-0.680358,-0.701304,-0.71081,-0.730629,-0.68358,-0.73659,-0.719672,-0.720156,-0.734657,-0.734979,-0.698243,-0.738524,-0.762853,-0.761242,-0.777838,-0.752703,-0.785572,-0.774132,-0.7896,-0.776227,-0.811029,-0.80394,-0.823275,-0.805874,-0.827947,-0.846155,-0.823114,-0.871934,-0.861139,-0.847605,-0.869195,-0.879024,-0.877896,-0.903515,-0.88998,-0.886758,-0.920916,-0.899003,-0.911087,-0.923494,-0.908671,-0.900453,-0.929294,-0.916727,-0.918499,-0.935095,-0.895781,-0.921238,-0.908187,-0.91576,-0.902226,-0.924139,-0.917694,-0.915116,-0.901903,-0.916405,-0.90996,-0.904159,-0.941701,-0.90722,-0.932517,-0.948468,-0.91286,-0.950724,-0.964581,-0.936706,-0.964258,-0.971187,-0.963131,-0.974248,-0.965386,-0.982788,-0.990683,-0.982304,-0.975215,-0.966997,-0.969253,-0.979565,-0.979082,-0.956202,-0.996644,-0.965708,-0.963936,-0.98166,-0.968609,-0.972153,-0.977309,-0.975054,-0.972798,-0.989877,-0.975698,-0.988588,-0.986332,-0.977793,-1.00035,-0.974893,-1.003895,-1.006634,-0.996322,-1.007923,-1.009051,-0.990683,-1.010179,-1.021296,-0.986171,-1.011145,-0.989233,-1.008567,-1.003895,-0.990844,-0.989071,-0.997289,-0.995516,-0.990844,-1.011468,-1.010501,-0.995839,-0.996,-1.006151,-0.989877,-0.987138,-0.999383,-1.010179,-0.976504,-0.999867,-1.014529,-0.97167,-0.998256,-0.982949,-0.982465,-0.997289,-0.992616,-0.985204,-1.010018,-0.988749,-0.992133,-1.031769,-0.975537,-1.014851,-0.996,-0.995839,-0.998094,-0.990038,-1.014207,-1.017429,-0.983916,-1.00325,-1.002606,-0.984077,-1.02178,-0.987621,-0.9931,-0.996644,-1.013562,-0.983271,-0.998256,-0.988427,-0.991327,-1.013562,-0.97167,-1.006956,-0.987621,-0.997289,-0.992616,-0.992294
 18:29:21.54248,-0.980371,-0.995033,-0.977309,-0.973765,-0.983271,-0.962003,-0.97167,-0.953785,-0.948146,-0.959264,-0.946212,-0.925105,-0.933161,-0.92285,-0.92575,-0.905448,-0.898681,-0.910121,-0.874673,-0.897553,-0.870484,-0.859367,-0.861784,-0.887241,-0.873384,-0.868067,-0.877251,-0.884341,-0.869195,-0.849538,-0.88273,-0.877574,-0.891753,-0.884985,-0.901259,-0.915599,-0.910604,-0.921399,-0.90287,-0.896747,-0.9301,-0.905287,-0.914471,-0.931067,-0.883858,-0.942507,-0.946696,-0.911893,-0.939123,-0.930422,-0.959586,-0.953624,-0.924622,-0.957813,-0.93864,-0.916566,-0.94009,-0.912538,-0.906254,-0.946212,-0.910604,-0.91866,-0.911249,-0.895136,-0.90996,-0.90996,-0.898359,-0.9301,-0.912376,-0.902387,-0.931872,-0.904965,-0.930261,-0.921077,-0.932195,-0.947663,-0.96587,-0.954913,-0.968125,-0.982143,-0.965708,-0.989555,-0.965225,-0.974248,-0.9989,-0.985527,-0.977471,-1.019202,-0.995516,-1.00325,-1.000995,-0.973926,-1.009212,-0.980371,-1.014368,-0.986493,-0.985366,-1.002445,-0.986655,-0.977632,-0.98746,-0.968286,-0.981338,-0.989071,-0.958136,-0.977471,-0.98166,-0.966997,-0.974893,-0.954752,-0.923816,-0.937028,-0.951368,-0.931389,-0.937673,-0.917855,-0.935417,-0.91141,-0.903998,-0.900614,-0.903998,-0.896586,-0.906898,-0.904965,-0.885952,-0.920594,-0.889497,-0.910443,-0.908832,-0.92011,-0.93864,-0.926716,-0.948146,-0.959586,-0.948146,-0.962325,-1.000672,-0.939606,-0.960069,-0.97167,-0.958619,-0.958136,-0.95298,-0.926233,-0.941057,-0.913504,-0.922044,-0.931389,-0.882246,-0.898198,-0.894975,-0.890625,-0.892719,-0.860978,-0.856789,-0.868712,-0.845188,-0.836326,-0.856144,-0.848732,-0.822792,-0.860172,-0.830525,-0.823597,-0.824403,-0.836326,-0.803618,-0.818925,-0.823275,-0.824403,-0.81828,-0.796851,-0.81973,-0.829236,-0.818602,-0.83697,-0.814413,-0.820858,-0.832781,-0.840032,-0.837615,-0.832459,-0.831653,-0.84551,-0.816185,-0.84116,-0.838098,-0.826659,-0.826981,-0.83407,-0.812157,-0.832298,-0.827786,-0.830042,-0.80974,-0.838904,-0.848894,-0.838904,-0.842932,-0.821986,-0.850505,-0.83552,-0.830364,-0.837776,-0.819086,-0.84986,-0.854533,-0.832781,-0.860978,-0.860978,-0.810868,-0.871934,-0.835681,-0.819086,-0.850988,-0.824564,-0.81973,-0.794111,-0.79814,-0.782833,-0.774454,-0.796528,-0.76527,-0.762209,-0.790244,-0.761887,-0.744163,-0.792822,-0.728856,-0.746097,-0.757375,-0.754636,-0.764626,-0.75802,-0.755281,-0.760437,-0.764948,-0.764304,-0.769943,-0.737074,-0.777838,-0.750769,-0.781383,-0.798462,-0.784444,-0.782672,-0.810707,-0.83552,-0.811029,-0.826981,-0.8613,-0.84986,-0.836648,-0.866939,-0.866456,-0.864039,-0.8555,-0.851794,-0.869517,-0.860656,-0.886597,-0.874029,-0.858078,-0.860656,-0.879991,-0.855983,-0.864362,-0.873707,-0.866939,-0.880796,-0.850505,-0.903676,-0.852277,-0.889336,-0.905448,-0.891108,-0.881763,-0.886597,-0.885791,-0.88563,-0.929294,-0.857433,-0.887402,-0.906254,-0.884502,-0.895136,-0.920272,-0.897231,-0.908509,-0.923655,-0.921077,-0.950079,-0.914471,-0.943151,-0.946535,-0.939123,-0.960714,-0.975376,-0.942023,-0.97167,-0.967964,-0.94879,-0.996322,-0.969898,-0.992938,-1.003895,-0.994066,-0.996,-1.001961,-0.999706,-1.003895,-0.995839,-0.982304,-1.001639,-0.969898,-1.003734,-0.982627,-0.990844,-0.973926,-0.970864,-0.962647,-0.975698,-0.962003,-0.952819,-0.966353,-0.95153,-0.95733,-0.929294,-0.927039,-0.936223,-0.931872,-0.923172,-0.931389,-0.928811,-0.910926,-0.961197,-0.9243,-0.968286,-0.972476,-0.973442,-0.995839,-1.019041,-1.007762,-1.01759,-1.043048,-1.023552,-1.037731,-1.02468,-1.050943,-1.046109,-1.036764,-1.051104,-1.054004,-1.03193,-1.049493,-1.042404,-1.024841,-1.055455,-1.026291,-1.03467,-1.034347,-1.042081,-1.037731,-1.044176,-1.033542,-1.042887,-1.034992,-1.027902,-1.046432,-1.031125,-1.051104,-1.046754,-1.04047,-1.051104,-1.048526,-1.040953,-1.035314,-1.024196,-1.023713,-1.036603,-1.012112,-1.017268,-1.024196,-0.9931,-1.014851,-1.030964,-1.002445,-1.023713,-1.031286,-1.004862,-1.046432,-1.014368,-1.036603,-1.033703,-1.036764,-1.062866,-1.051426,-1.061577,-1.069311,-1.052071,-1.073178,-1.080912,-1.061094,-1.082362,-1.088807,-1.081396,-1.100086,-1.092191,-1.091385,-1.095413,-1.10637,-1.102664,-1.098636,-1.089935,-1.102825,-1.090096,-1.092835,-1.09348,-1.081718,-1.070761,-1.071084,-1.068828,-1.042887,-1.066572,-1.037086,-1.046915,-1.049654,-1.057388,-1.025485,-1.044498,-1.02468,-1.048848,-1.04047,-1.032414,-1.071406,-1.031447,-1.060933,-1.051588,-1.025808,-1.040148,-1.045626,-1.032897,-1.05191,-1.039503,-1.041759,-1.050621,-0.999867,-1.019846,-1.024358,-0.993583,-1.015979,-0.9989,-0.980371,-0.989877,-0.969898,-0.963936,-0.963936,-0.961358,-0.952174,-0.964742,-0.947824,-0.933645,-0.942829,-0.941218,-0.945246,-0.93864,-0.952496,-0.986655,-0.975859,-0.962325,-1.01469,-0.9989,-1.000834,-1.026613,-1.014368,-1.030964,-1.050621,-1.027419,-1.048043,-1.04901,-1.033219,-1.058355,-1.039503,-1.046432,-1.034831,-1.050299,-1.020168,-1.011951,-0.996644,-1.0047,-0.986816,-0.969414,-0.941218,-0.919788,-0.939768,-0.897231,-0.891753,-0.862267,-0.847605,-0.816991,-0.81828,-0.807968,-0.758825,-0.753025,-0.713227,-0.684547,-0.673591,-0.625576,-0.565154,-0.546947,-0.486687,-0.441733,-0.408542,-0.308484,-0.276903,-0.185224,-0.154288,-0.06438,-0.011693,0.055818,0.141698,0.249812,0.296055,0.358249,0.431561,0.487471,0.523724,0.56175,0.60332,0.639895,0.681949,0.722391,0.761222,0.797153,0.825995,0.861926,0.88545,0.913325,0.939749,0.961823,0.978097,1.005488,1.019184,1.033202,1.054471,1.052859,1.076061,1.073967,1.076867,1.068972,1.070261,1.054632,1.04013,1.020473,0.983414,0.951995,0.90688,0.872238,0.767345,0.729964,0.656008,0.57754,0.520502,0.4343,0.347615,0.254485,0.158455,0.078054,-0.010726,-0.102083,-0.195052,-0.282381,-0.368422,-0.456718,-0.517945,-0.622353,-0.68213,-0.721122,-0.837937,-0.871612,-0.919788,-0.957652,-0.969575,-0.982304,-0.983754,-0.99036,-1.032253,-1.017268,-1.031286,-1.033381,-1.042081,-1.032897,-1.042565,-1.033542,-1.032092,-1.041115,-1.050782,-1.044659,-1.039826,-1.047398,-1.054327,-1.051104,-1.056582,-1.048526,-1.057549,-1.055616,-1.063672,-1.067055,-1.073339,-1.076562,-1.070922,-1.064477,-1.071084,-1.070439,-1.069472,-1.078334,-1.08059,-1.067539,-1.0648,-1.074467,-1.070117,-1.057871,-1.078818,-1.067861,-1.067217,-1.061577,-1.066733,-1.064155,-1.054166,-1.062544,-1.064639,-1.056421,-1.065283,-1.05771,-1.040792,-1.052071,-1.048526,-1.023713,-1.03612,-1.021296,-1.009534,-1.031286,-1.016301,-0.987621,-0.998578,-0.988588,-0.975215,-0.975215,-0.96877,-0.964097,-0.959908,-0.949435,-0.951368,-0.953946,-0.943151,-0.967159,-0.968125,-0.956524,-0.988588,-0.963936,-0.992455,-0.995033,-0.992455,-1.004378,-1.009212,-0.985204,-1.009534,-1.021457,-1.002284,-1.012112,-1.004056,-1.0047,-0.992455,-1.005506,-0.998578,-0.982788,-0.984238,-0.991811,-0.993422,-0.991488,-0.999383,-0.981015,-0.988266,-0.971509,-0.972637,-0.972959,-0.984882,-0.977632,-0.957491,-0.988105,-0.965708,-0.966031,-0.969092,-0.975859,-0.969253,-0.961036,-0.971831,-0.976504,-0.958458,-0.955558,-0.981338,-0.933484,-0.974409,-0.946696,-0.958941,-0.963131,-0.94444,-0.950402,-0.951207,-0.943312,-0.922527,-0.950402,-0.927844,-0.955074,-0.939123,-0.950402,-0.929294,-0.954591,-0.947663,-0.933484,-0.920916,-0.921561,-0.937351,-0.901742,-0.918338,-0.909476,-0.896747,-0.903354,-0.910604,-0.88563,-0.912376,-0.894331,-0.880796,-0.913021,-0.853083,-0.893203,-0.886919,-0.870968,-0.884502,-0.88708,-0.868228,-0.872095,-0.849377,-0.842288,-0.860333,-0.833587,-0.847605,-0.831331,-0.834392,-0.842932,-0.852438,-0.83262,-0.850505,-0.821503,-0.822792,-0.863556,-0.809902,-0.8584,-0.848732,-0.850344,-0.841321,-0.842126,-0.841482,-0.859044,-0.841321,-0.841643,-0.863556,-0.826014,-0.856789,-0.867584,-0.868067,-0.867423,-0.877735,-0.873546,-0.889497,-0.885469,-0.897553,-0.924461,-0.901581,-0.9301,-0.938317,-0.929294,-0.935901,-0.947501,-0.946051,-0.954269,-0.955235,-0.945407,-0.958136,-0.93719,-0.952819,-0.93864,-0.945407,-0.947824,-0.936223,-0.927522,-0.94009,-0.943151,-0.933323,-0.919305,-0.905287,-0.906415,-0.90287,-0.900292,-0.88128,-0.891914,-0.880313,-0.861784,-0.874351,-0.852116,-0.876929,-0.863556,-0.87129,-0.854855,-0.847443,-0.857272,-0.847927,-0.838098,-0.853727,-0.869679,-0.842932,-0.874512,-0.84841,-0.873062,-0.864523,-0.854855,-0.863395,-0.87564,-0.870323,-0.899648,-0.878057,-0.878218,-0.902709,-0.890625,-0.877574,-0.903515,-0.883858,-0.909315,-0.900453,-0.894975,-0.918177,-0.897553,-0.891269,-0.914471,-0.905609,-0.889175,-0.925266,-0.896264,-0.913827,-0.921722,-0.909154,-0.901259,-0.932356,-0.894169,-0.90722,-0.923333,-0.916082,-0.922527,-0.915438,-0.921399,-0.922205,-0.924783,-0.925428,-0.940412,-0.896586,-0.932678,-0.93719,-0.90287,-0.944118,-0.917532,-0.914632,-0.923816,-0.929133,-0.920594,-0.931711,-0.92285,-0.914954,-0.934289,-0.908187,-0.920916,-0.908671,-0.90577,-0.90722,-0.901259,-0.897875,-0.89997,-0.903354,-0.898036,-0.903354,-0.848732,-0.895297,-0.870162,-0.857917,-0.868873,-0.864362,-0.839548,-0.884824,-0.837615,-0.846638,-0.88998,-0.846316,-0.870806,-0.865651,-0.865489,-0.878218,-0.867745,-0.860495,-0.860656,-0.851633,-0.872418,-0.884502,-0.852277,-0.882891,-0.841965,-0.862911,-0.850827,-0.856144,-0.876124,-0.837454,-0.846477,-0.846799,-0.859528,-0.833426,-0.862106,-0.845188,-0.849699,-0.825853,-0.851472,-0.840354,-0.855016,-0.835843,-0.837293,-0.844704,-0.828431,-0.844866,-0.828592,-0.836004,-0.842932,-0.854211,-0.811352,-0.84986,-0.820375,-0.788472,-0.831814,-0.780094,-0.805551,-0.805068,-0.802007,-0.810063,-0.81538,-0.832781,-0.821825,-0.820697,-0.787183,-0.829559,-0.78525,-0.835037,-0.806196,-0.818602,-0.840676,-0.822469,-0.807646,-0.840193,-0.821503,-0.810385,-0.856144,-0.799912,-0.822792,-0.822469,-0.828431,-0.821341,-0.848571,-0.817474,-0.811191,-0.821664,-0.826336,-0.849699,-0.810707,-0.820697,-0.830364,-0.805551,-0.798301,-0.82118,-0.826497,-0.815058,-0.804423,-0.810546,-0.837132,-0.795078,-0.83552,-0.837615,-0.80249,-0.821503,-0.832298,-0.825047,-0.837615,-0.824081,-0.814091,-0.849699,-0.81248,-0.847766,-0.830848,-0.848732,-0.835843,-0.852438,-0.855177,-0.861139,-0.841643,-0.863073,-0.864362,-0.827947,-0.850827,-0.863878,-0.875962,-0.856305,-0.870484,-0.867101,-0.849055,-0.857433,-0.870484,-0.880957,-0.857272,-0.878863,-0.903192,-0.868551,-0.89143,-0.899648,-0.889336,-0.91721,-0.931067,-0.920433,-0.955074,-0.952174,-0.948146,-0.97022,-0.977471,-0.973765,-0.984721,-0.98891,-0.982465,-1.000189,-1.002928,-1.000511,-0.990844,-1.001317,-1.003573,-0.981499,-1.002928,-0.9989,-0.984399,-1.00744,-1.000511,-1.005989,-1.009051,-0.998256,-1.011951,-1.019524,-1.012434,-1.023874,-1.026936,-1.020168,-1.029352,-1.040953,-1.033703,-1.039664,-1.040309,-1.031125,-1.05626,-1.048043,-1.043531,-1.065605,-1.058677,-1.057549,-1.065444,-1.066572,-1.0706,-1.074789,-1.081718,-1.079623,-1.079784,-1.085101,-1.088324,-1.07914,-1.105242,-1.086068,-1.101536,-1.106692,-1.089613,-1.105242,-1.114104,-1.105403,-1.117165,-1.120226,-1.128927,-1.122321,-1.122965,-1.131344,-1.124577,-1.121838,-1.132633,-1.127799,-1.113137,-1.121838,-1.131022,-1.112976,-1.126188,-1.143428,-1.133922,-1.145039,-1.148584,-1.14085,-1.155674,-1.141495,-1.144073,-1.158735,-1.147295,-1.143912,-1.140367,-1.158574,-1.149229,-1.144234,-1.151646,-1.15938,-1.141656,-1.160024,-1.155996,-1.14939,-1.148906,-1.157124,-1.15938,-1.164697,-1.166791,-1.165663,-1.170819,-1.163569,-1.172753,-1.15938,-1.175331,-1.168564,-1.165341,-1.174847,-1.170336,-1.175814,-1.176298,-1.183548,-1.165824,-1.16228,-1.162924,-1.160668,-1.151484,-1.17952,-1.161635,-1.166147,-1.179359,-1.170497,-1.178553,-1.158252,-1.16953,-1.16228,-1.16663,-1.175009,-1.174847,-1.176942,-1.178876,-1.154707,-1.149873,-1.175009,-1.157285,-1.18532,-1.180003,-1.166308,-1.170497,-1.175814,-1.170658,-1.17807,-1.18242,-1.151968,-1.181776,-1.179359,-1.189671,-1.16953,-1.183548,-1.185965,-1.16953,-1.169047,-1.182904,-1.184354,-1.15519,-1.17952,-1.176136,-1.174364,-1.171947,-1.181292,-1.174042,-1.175975,-1.153096,-1.175975,-1.182581,-1.157929,-1.174847,-1.14939,-1.167597,-1.156479,-1.164374,-1.161313,-1.163569,-1.145039,-1.169853,-1.16373,-1.126671,-1.16083,-1.146651,-1.152935,-1.135533,-1.151807,-1.148584,-1.146006,-1.136822,-1.148584,-1.140528,-1.132633,-1.129572,-1.120871,-1.118776,-1.110398,-1.110076,-1.110076,-1.089452,-1.096541,-1.074306,-1.105242,-1.052232,-1.081879,-1.055455,-1.056905,-1.052071,-1.045948,-1.039181,-1.056744,-1.023552,-1.024358,-1.047398,-1.023713,-1.057388,-1.015818,-1.017752,-1.032253,-1.001639,-1.010823,-1.01324,-1.009051,-1.033219,-1.037086,-1.015012,-1.040148,-1.017752,-1.022746,-1.024358,-1.042565,-1.025002,-1.048204,-1.039987,-1.032414,-1.042404,-1.030319,-1.048365,-1.039503,-1.039342,-1.038859,-1.043692,-1.018396,-1.050621,-1.027419,-1.021457,-1.034025,-0.998739,-1.025647,-1.014529,-1.007923,-1.027741,-1.0047,-1.012918,-1.021135,-0.990844,-1.012273,-1.013079,-0.996161,-1.028386,-1.00035,-1.018557,-1.011468,-1.010823,-0.997611,-1.004539,-1.002767,-1.016785,-1.032575,-1.015496,-1.037086,-1.012918,-1.041759,-1.029997,-1.047076,-1.045465,-1.0648,-1.057549,-1.062866,-1.08784,-1.060288,-1.095736,-1.080107,-1.070922,-1.087035,-1.087679,-1.090902,-1.09928,-1.087679,-1.098314,-1.114748,-1.080429,-1.103953,-1.080912,-1.097669,-1.10782,-1.090257,-1.090418,-1.106531,-1.088807,-1.083651,-1.097347,-1.061416,-1.102019,-1.083168,-1.094608,-1.078334,-1.080751,-1.08059,-1.079945,-1.095252,-1.079945,-1.110237,-1.073178,-1.101375,-1.104758,-1.088485,-1.096863,-1.120226,-1.075917,-1.107336,-1.094769,-1.089291,-1.1336,-1.076562,-1.105242,-1.120871,-1.102503,-1.093641,-1.119743,-1.10073,-1.116359,-1.11072,-1.111848,-1.126994,-1.099441,-1.130055,-1.114587,-1.114909,-1.133761,-1.11781,-1.118937,-1.130538,-1.123288,-1.122643,-1.122321,-1.124416,-1.118132,-1.121999,-1.123932,-1.122965,-1.117487,-1.12071,-1.107175,-1.125705,-1.11217,-1.127155,-1.117165,-1.107498,-1.137467,-1.120549,-1.11072,-1.132311,-1.110398,-1.104758,-1.128121,-1.12071,-1.129894,-1.125543,-1.125866,-1.12941,-1.112654,-1.130699,-1.136339,-1.107498,-1.121838,-1.120871,-1.114265,-1.12651,-1.12071,-1.120871,-1.13505,-1.122321,-1.132311,-1.12796,-1.135533,-1.114909,-1.149873,-1.129249,-1.131988,-1.134083,-1.133277,-1.145039,-1.133277,-1.130538,-1.135372,-1.135533,-1.136822,-1.139561,-1.120226,-1.136983,-1.136661,-1.111526,-1.156157,-1.127155,-1.144234,-1.145039,-1.117487,-1.11362,-1.139722,-1.128766,-1.130055,-1.132794,-1.113943,-1.133116,-1.118454,-1.134728,-1.111526,-1.120065,-1.116359,-1.109753,-1.11217,-1.11781,-1.120388,-1.115715,-1.123127,-1.125705,-1.125866,-1.122643,-1.127316,-1.126832,-1.143912,-1.12651,-1.137789,-1.152935,-1.140689,-1.141334,-1.14649,-1.154707,-1.148745,-1.160024,-1.164858,-1.160991,-1.16373,-1.167436,-1.171625,-1.152129,-1.183387,-1.167113,-1.171464,-1.174203,-1.177909,-1.161957,-1.175009,-1.173881,-1.16808,-1.170658,-1.169691,-1.169369,-1.169853,-1.179037,-1.165019,-1.173075,-1.172914,-1.168725,-1.170014,-1.181453,-1.177748,-1.175009,-1.177909,-1.172914,-1.187093,-1.171303,-1.165663,-1.185643,-1.186609,-1.165502,-1.186126,-1.199983,-1.169691,-1.196599,-1.172269,-1.182581,-1.187093,-1.185804,-1.192249,-1.191927,-1.17807,-1.196438,-1.190154,-1.181776,-1.184837,-1.177587,-1.204333,-1.178392,-1.189671,-1.189671,-1.203205,-1.175653,-1.190799,-1.209006,-1.16953,-1.209006,-1.189349,-1.185643,-1.191927,-1.197888,-1.200144,-1.203689,-1.187254,-1.194021,-1.189671,-1.198372,-1.191282,-1.192571,-1.200627,-1.202077,-1.186609,-1.191927,-1.192893,-1.188543,-1.199983,-1.213034,-1.18387,-1.213034,-1.18387,-1.206911,-1.193699,-1.2024,-1.198372,-1.209167,-1.19676,-1.214806,-1.188704,-1.209167,-1.208361,-1.194343,-1.2082,-1.212389,-1.202238,-1.211906,-1.213356,-1.206911,-1.212067,-1.218351,-1.192088,-1.209811,-1.198372,-1.20385,-1.200144,-1.197405,-1.210295,-1.2053,-1.197244,-1.204011,-1.201916,-1.199983,-1.19531,-1.210295,-1.197888,-1.191604,-1.214967,-1.177748,-1.220929,-1.193377,-1.191927,-1.218995,-1.192088,-1.216095,-1.208361,-1.201272,-1.209489,-1.193377,-1.208039,-1.210778,-1.194505,-1.21255,-1.215934,-1.190638,-1.228824,-1.183226,-1.213195,-1.20965,-1.216095,-1.207233,-1.21255,-1.199177,-1.207717,-1.224151,-1.188221,-1.20965,-1.209006,-1.204011,-1.214323,-1.205622,-1.2111,-1.221896,-1.195632,-1.200788,-1.226085,-1.185804,-1.212873,-1.219801,-1.207072,-1.199016,-1.21529,-1.213034,-1.207556,-1.214967,-1.188865,-1.214967,-1.194182,-1.225763,-1.204655,-1.214162,-1.215612,-1.198855,-1.211423,-1.229307,-1.198049,-1.200949,-1.226568,-1.197405,-1.214001,-1.21674,-1.217868,-1.210778,-1.197083,-1.213356,-1.218834,-1.207878,-1.205783,-1.230435,-1.207556,-1.202238,-1.207878,-1.209006,-1.199983,-1.219479,-1.218995,-1.212873,-1.215934,-1.199983,-1.230113,-1.191443,-1.21819,-1.214645,-1.206267,-1.2024,-1.212389,-1.203205,-1.219157,-1.188543,-1.211906,-1.223023,-1.191927,-1.218673,-1.214484,-1.217223,-1.212067,-1.199661,-1.215612,-1.220445,-1.201755,-1.210134,-1.213517,-1.207394,-1.230596,-1.204655,-1.203205,-1.218351,-1.222379,-1.202722,-1.201433,-1.215128,-1.206267,-1.224474,-1.196116,-1.199177,-1.201433,-1.194666,-1.175492,-1.18951,-1.180487,-1.172592,-1.16808,-1.131344,-1.146973,-1.081557,-1.119582,-1.084779,-1.067861,-1.052554,-1.044337,-0.992777,-0.958619,-0.908832,-0.892236,-0.844221,-0.783961,-0.767204,-0.705816,-0.671657,-0.648455,-0.570955,-0.526484,-0.473475,-0.381473,-0.337969,-0.314284,-0.193119,-0.174428,-0.094188,-0.031028,0.021499,0.081115,0.152976,0.218393,0.265925,0.317485,0.377584,0.410453,0.445418,0.478448,0.505517,0.537742,0.572062,0.603964,0.630711,0.662131,0.690166,0.710146,0.734959,0.753166,0.764606,0.781363,0.791997,0.79522,0.797637,0.799893,0.802471,0.780235,0.77234,0.758483,0.724003,0.687105,0.648274,0.603803,0.580601,0.504067,0.433333,0.378229,0.318612,0.227899,0.155071,0.075314,0.034067,-0.068247,-0.178779,-0.241295,-0.307356,-0.423043,-0.496515,-0.586262,-0.678908,-0.724828,-0.838582,-0.896425,-0.927522,-1.02758,-1.086229,-1.115232,-1.1394,-1.148423,-1.147295,-1.145362,-1.135694,-1.133116,-1.152612,-1.155674,-1.162924,-1.144073,-1.145201,-1.150357,-1.165986,-1.17807,-1.162441,-1.149873,-1.150679,-1.186126,-1.181292,-1.161796,-1.159702,-1.152773,-1.178876,-1.189026,-1.179037,-1.166469,-1.162441,-1.177748,-1.201594,-1.18532,-1.180003,-1.163246,-1.160668,-1.173075,-1.198533,-1.197405,-1.193377,-1.186932,-1.171786,-1.172592,-1.163408,-1.183226,-1.167597,-1.170658,-1.198694,-1.201594,-1.194343,-1.214323,-1.19821,-1.186932,-1.194021,-1.187254,-1.207556,-1.201433,-1.207233,-1.199661,-1.195794,-1.200305,-1.199338,-1.187898,-1.189671,-1.185965,-1.157768,-1.166952,-1.176136,-1.174525,-1.174847,-1.181292,-1.17098,-1.182904,-1.177748,-1.153579,-1.17952,-1.168564,-1.165502,-1.159863,-1.152935,-1.149551,-1.156157,-1.145039,-1.164374,-1.144717,-1.139078,-1.154707,-1.124416,-1.146651,-1.140689,-1.131344,-1.124738,-1.144717,-1.126027,-1.12216,-1.130538,-1.102664,-1.113943,-1.106692,-1.134728,-1.10782,-1.116198,-1.098475,-1.122643,-1.094447,-1.088324,-1.115393,-1.06625,-1.110076,-1.098314,-1.104114,-1.098475,-1.105403,-1.103631,-1.09638,-1.089613,-1.100247,-1.120065,-1.079623,-1.109753,-1.093963,-1.090096,-1.107659,-1.091063,-1.103469,-1.112815,-1.095252,-1.092352,-1.098958,-1.086713,-1.109753,-1.075756,-1.099119,-1.097669,-1.094769,-1.089613,-1.085907,-1.083651,-1.069633,-1.09203,-1.069795,-1.078012,-1.069956,-1.075595,-1.062866,-1.074467,-1.057871,-1.0648,-1.041115,-1.039664,-1.055616,-1.017752,-1.055777,-1.028869,-1.033864,-1.020652,-1.005506,-1.005345,-1.026774,-0.979887,-0.975215,-1.013562,-0.957975,-0.987299,-0.980532,-0.972959,-0.938317,-0.957169,-0.959747,-0.952013,-0.952657,-0.94154,-0.980693,-0.959747,-0.995678,-0.976987,-0.991166,-0.977309,-0.998739,-1.011468,-1.017107,-1.013885,-1.006634,-1.059322,-1.010501,-1.037731,-1.058838,-1.039987,-1.061416,-1.077045,-1.062222,-1.085424,-1.076884,-1.051265,-1.100569,-1.063027,-1.08204,-1.079945,-1.079462,-1.090418,-1.072373,-1.079945,-1.079623
