0.039061,0.082726,0.108667,0.165866,0.220326,0.248040,0.321029,0.366305,0.356638,0.413354,0.485699,0.517763,0.532586,0.562716,0.590913,0.599131,0.611376,0.620560,0.628455,0.619916,0.613310,0.620883,0.588658,0.566745,0.547410,0.485699,0.441389,0.381129,0.339075,0.249329,0.224516,0.150560,0.098839,0.031005,-0.071148,-0.129636,-0.197308,-0.250640,-0.312028,-0.403547,-0.465902,-0.494099,-0.579817,-0.635082,-0.693248,-0.751414,-0.792822,-0.808451,-0.856950,-0.887886,-0.910121,-0.919627,-0.935417,-0.949596,-0.956202,-0.965708,-0.980371,-0.979887,-0.986010,-0.981982,-0.967803,-0.967642,-0.963453,-0.964903,-0.926878,-0.929456,-0.934128,-0.895297,-0.899648,-0.883052,-0.848732,-0.828270,-0.833103,-0.799267,-0.794434,-0.751736,-0.765270,-0.748513,-0.732884,-0.716289,-0.722734,-0.709038,-0.684547,-0.697598,-0.655061,-0.657801,-0.715161,-0.620098,-0.683742,-0.650389,-0.646200,-0.643783,-0.652161,-0.673913,-0.643461,-0.634276,-0.663601,-0.665051,-0.623481,-0.653450,-0.657962,-0.639271,-0.666662,-0.666985,-0.638305,-0.642010,-0.655706,-0.660056,-0.665212,-0.690025,-0.642494,-0.656350,-0.683419,-0.661829,-0.673268,-0.663923,-0.639432,-0.678102,-0.687286,-0.662151,-0.681969,-0.676330,-0.644588,-0.713711,-0.676169,-0.678263,-0.653450,-0.692442,-0.685997,-0.667629,-0.660056,-0.651839,-0.705654,-0.685514,-0.682453,-0.673107,-0.646039,-0.706621,-0.668918,-0.702754,-0.693731,-0.680680,-0.671657,-0.661506,-0.704849,-0.657317,-0.671174,-0.666340,-0.682453,-0.673752,-0.677941,-0.680680,-0.710649,-0.675363,-0.665212,-0.706460,-0.674557,-0.676813,-0.698404,-0.667468,-0.661506,-0.690992,-0.657317,-0.676974,-0.671979,-0.649744,-0.675685,-0.661023,-0.660540,-0.668113,-0.645072,-0.654417,-0.674074,-0.663601,-0.669724,-0.688253,-0.643461,-0.614136,-0.658928,-0.614942,-0.645555,-0.626059,-0.642977,-0.627187,-0.642816,-0.638466,-0.636049,-0.641849,-0.624126,-0.639916,-0.627348,-0.618970,-0.643138,-0.624126,-0.643783,-0.615908,-0.619131,-0.639755,-0.617197,-0.635565,-0.604307,-0.653450,-0.601246,-0.630409,-0.635888,-0.602696,-0.606885,-0.617358,-0.630732,-0.608819,-0.629120,-0.609302,-0.607208,-0.626704,-0.592223,-0.626059,-0.595607,-0.616069,-0.627187,-0.599635,-0.600602,-0.623803,-0.574661,-0.579172,-0.628315,-0.579011,-0.605113,-0.604952,-0.596735,-0.613491,-0.608497,-0.583522,-0.612686,-0.619292,-0.572566,-0.590612,-0.594318,-0.589001,-0.595929,-0.591740,-0.592868,-0.558870,-0.603180,-0.548881,-0.584328,-0.570310,-0.556454,-0.586745,-0.549525,-0.580139,-0.596573,-0.546625,-0.587228,-0.578528,-0.551620,-0.565315,-0.580139,-0.550331,-0.539697,-0.563543,-0.536474,-0.554520,-0.544691,-0.541308,-0.540825,-0.553392,-0.534702,-0.554037,-0.539052,-0.542275,-0.565960,-0.523262,-0.528901,-0.541308,-0.542114,-0.527451,-0.526646,-0.515045,-0.513595,-0.533574,-0.479114,-0.515689,-0.520523,-0.489104,-0.520684,-0.506344,-0.505861,-0.498771,-0.531479,-0.473636,-0.488781,-0.488781,-0.503283,-0.509244,-0.488620,-0.493132,-0.489265,-0.481209,-0.515367,-0.509889,-0.475408,-0.499416,-0.483948,-0.469447,-0.506344,-0.487654,-0.483948,-0.478470,-0.502477,-0.464291,-0.458007,-0.463485,-0.467030,-0.470252,-0.472025,-0.455429,-0.471863,-0.408058,-0.487331,-0.449467,-0.463646,-0.442378,-0.443667,-0.454301,-0.436577,-0.465902,-0.454140,-0.419015,-0.495710,-0.436416,-0.464935,-0.434160,-0.436900,-0.421432,-0.435933,-0.424654,-0.433999,-0.432549,-0.433194,-0.445600,-0.439961,-0.422721,-0.420143,-0.419659,-0.434322,-0.414020,-0.408219,-0.410636,-0.434805,-0.430293,-0.406286,-0.425137,-0.404030,-0.422721,-0.411925,-0.408219,-0.387273,-0.397263,-0.414020,-0.415148,-0.389529,-0.419176,-0.429166,-0.353437,-0.411603,-0.431582,-0.369872,-0.401613,-0.398713,-0.387757,-0.391301,-0.388885,-0.384534,-0.363588,-0.402741,-0.366166,-0.401613,-0.383406,-0.390335,-0.376156,-0.398230,-0.368905,-0.380828,-0.384373,-0.384212,-0.387434,-0.362621,-0.380506,-0.379056,-0.372450,-0.352793,-0.378411,-0.359077,-0.387434,-0.353437,-0.394363,-0.376961,-0.385340,-0.338292,-0.373739,-0.366166,-0.363749,-0.402258,-0.379056,-0.346831,-0.386951,-0.364555,-0.373900,-0.354082,-0.378734,-0.326529,-0.378411,-0.361332,-0.364394,-0.357304,-0.355210,-0.362621,-0.375833,-0.366811,-0.370516,-0.365522,-0.347798,-0.376156,-0.355210,-0.385823,-0.354726,-0.356982,-0.369066,-0.362460,-0.375350,-0.339419,-0.377445,-0.408381,-0.369872,-0.369711,-0.339903,-0.374706,-0.346992,-0.356015,-0.391463,-0.360527,-0.340064,-0.370677,-0.385984,-0.332491,-0.377122,-0.376478,-0.364071,-0.407253,-0.393718,-0.353598,-0.380667,-0.383406,-0.385018,-0.371644,-0.373739,-0.395652,-0.389207,-0.412570,-0.390174,-0.409025,-0.383567,-0.397424,-0.411281,-0.407253,-0.432388,-0.431099,-0.397907,-0.460746,-0.410959,-0.450434,-0.450434,-0.458168,-0.448662,-0.465257,-0.476375,-0.470574,-0.489587,-0.486365,-0.469124,-0.499577,-0.493615,-0.485720,-0.490876,-0.477664,-0.472186,-0.503766,-0.493293,-0.498288,-0.532285,-0.501027,-0.528096,-0.515367,-0.498932,-0.568216,-0.540825,-0.520523,-0.537763,-0.546947,-0.540019,-0.564026,-0.564188,-0.569988,-0.545819,-0.571438,-0.558870,-0.559032,-0.574338,-0.591417,-0.601568,-0.611075,-0.598185,-0.605435,-0.566282,-0.635404,-0.604630,-0.612686,-0.599474,-0.650389,-0.612686,-0.656834,-0.655384,-0.637982,-0.668113,-0.653772,-0.634438,-0.672463,-0.650389,-0.663762,-0.648778,-0.655061,-0.690670,-0.676008,-0.668918,-0.676974,-0.720800,-0.684708,-0.697276,-0.693892,-0.689703,-0.678263,-0.713711,-0.687447,-0.698082,-0.700015,-0.703076,-0.713388,-0.701626,-0.713872,-0.695826,-0.679069,-0.738040,-0.681647,-0.728373,-0.714033,-0.708394,-0.687770,-0.720961,-0.747708,-0.702915,-0.746258,-0.696793,-0.716933,-0.716772,-0.727728,-0.695504,-0.737235,-0.719189,-0.706621,-0.728051,-0.710005,-0.711616,-0.712744,-0.715161,-0.738363,-0.718061,-0.709844,-0.699693,-0.723056,-0.725956,-0.743035,-0.747224,-0.685836,-0.730467,-0.745130,-0.746097,-0.712583,-0.744808,-0.717255,-0.715966,-0.730145,-0.732401,-0.730467,-0.719511,-0.703721,-0.773004,-0.729823,-0.716127,-0.744808,-0.707105,-0.710166,-0.745613,-0.727245,-0.707105,-0.736912,-0.721122,-0.740779,-0.718544,-0.707105,-0.712099,-0.704043,-0.734818,-0.721283,-0.745613,-0.705171,-0.712422,-0.717900,-0.722895,-0.709682,-0.709360,-0.720961,-0.698404,-0.728051,-0.690186,-0.709038,-0.697598,-0.687447,-0.713388,-0.707427,-0.694376,-0.707266,-0.699854,-0.718705,-0.674235,-0.694537,-0.712905,-0.698565,-0.687609,-0.687609,-0.710166,-0.668113,-0.721283,-0.693731,-0.687931,-0.720800,-0.679713,-0.684225,-0.688575,-0.689220,-0.668918,-0.734979,-0.696148,-0.674235,-0.712583,-0.706138,-0.686320,-0.699209,-0.684869,-0.657156,-0.681486,-0.667146,-0.706299,-0.696309,-0.643622,-0.696793,-0.666179,-0.672785,-0.684064,-0.690025,-0.656673,-0.673430,-0.663601,-0.660217,-0.665212,-0.676813,-0.668596,-0.663762,-0.656995,-0.676169,-0.663440,-0.671174,-0.670690,-0.675041,-0.654095,-0.654095,-0.643783,-0.627348,-0.666985,-0.679230,-0.672463,-0.647650,-0.696793,-0.650389,-0.661345,-0.667629,-0.645716,-0.637982,-0.635565,-0.654739,-0.667629,-0.645716,-0.663440,-0.633793,-0.648939,-0.678424,-0.666179,-0.638143,-0.628315,-0.675524,-0.630571,-0.667146,-0.646039,-0.632343,-0.652000,-0.683903,-0.640399,-0.663118,-0.643944,-0.632987,-0.649583,-0.668274,-0.642172,-0.658928,-0.638143,-0.646039,-0.657317,-0.637982,-0.623642,-0.655545,-0.653450,-0.645716,-0.646522,-0.643622,-0.636210,-0.631376,-0.643138,-0.646844,-0.618970,-0.630409,-0.639594,-0.639271,-0.632182,-0.640560,-0.630732,-0.622192,-0.673752,-0.627831,-0.633310,-0.651356,-0.643461,-0.632343,-0.645555,-0.658284,-0.628959,-0.640077,-0.619936,-0.632343,-0.644427,-0.640883,-0.667790,-0.620903,-0.640721,-0.618003,-0.619292,-0.613814,-0.647972,-0.624448,-0.634276,-0.643944,-0.620420,-0.618003,-0.600279,-0.615264,-0.610108,-0.632343,-0.615264,-0.625576,-0.635243,-0.623320,-0.635565,-0.595768,-0.614780,-0.633632,-0.595123,-0.585939,-0.628315,-0.618003,-0.606241,-0.635565,-0.610108,-0.608497,-0.602696,-0.629926,-0.593673,-0.625254,-0.609786,-0.580139,-0.625737,-0.632826,-0.629926,-0.635888,-0.609463,-0.603985,-0.617036,-0.639432,-0.590451,-0.594962,-0.616875,-0.632021,-0.637338,-0.604791,-0.634921,-0.605435,-0.603502,-0.629765,-0.590290,-0.613169,-0.595446,-0.600279,-0.603180,-0.630248,-0.613814,-0.614136,-0.626704,-0.592384,-0.586100,-0.628154,-0.580622,-0.624770,-0.642655,-0.607046,-0.600118,-0.610269,-0.623481,-0.620098,-0.580300,-0.608335,-0.609141,-0.584650,-0.605919,-0.614619,-0.576433,-0.598024,-0.598990,-0.549203,-0.573049,-0.598507,-0.551781,-0.583684,-0.541308,-0.559837,-0.576111,-0.567732,-0.551136,-0.545175,-0.542114,-0.553553,-0.564832,-0.536313,-0.541147,-0.550814,-0.505699,-0.566604,-0.556131,-0.505861,-0.559193,-0.548075,-0.521490,-0.524390,-0.541469,-0.522295,-0.531802,-0.550492,-0.552264,-0.511178,-0.545175,-0.551620,-0.549042,-0.538569,-0.540825,-0.571277,-0.528740,-0.549686,-0.543403,-0.549203,-0.562093,-0.579494,-0.566121,-0.537441,-0.563221,-0.550814,-0.555165,-0.568538,-0.532607,-0.564671,-0.515850,-0.544369,-0.600279,-0.549364,-0.497804,-0.549203,-0.532607,-0.517945,-0.534218,-0.538891,-0.515528,-0.526646,-0.553714,-0.499577,-0.512789,-0.529385,-0.511500,-0.510855,-0.485398,-0.538891,-0.524068,-0.507794,-0.522456,-0.490876,-0.519878,-0.538247,-0.521329,-0.521490,-0.539052,-0.545497,-0.530351,-0.569343,-0.530351,-0.556776,-0.535024,-0.530351,-0.556454,-0.532607,-0.551942,-0.561448,-0.560804,-0.551620,-0.548397,-0.603018,-0.517462,-0.580139,-0.586584,-0.544530,-0.599313,-0.594801,-0.563060,-0.558870,-0.580944,-0.577883,-0.591901,-0.609463,-0.563382,-0.579333,-0.571599,-0.607691,-0.594801,-0.593351,-0.590934,-0.611880,-0.591579,-0.596412,-0.613008,-0.545819,-0.621709,-0.607369,-0.602374,-0.604307,-0.653611,-0.627993,-0.620581,-0.660540,-0.627348,-0.642977,-0.650872,-0.659251,-0.670690,-0.625898,-0.664729,-0.666985,-0.642010,-0.644266,-0.666340,-0.642816,-0.654256,-0.694053,-0.675846,-0.665212,-0.689703,-0.689059,-0.659090,-0.690186,-0.679713,-0.672141,-0.683742,-0.692442,-0.685353,-0.668918,-0.680519,-0.673913,-0.703399,-0.701626,-0.673913,-0.706621,-0.670368,-0.707910,-0.675041,-0.655867,-0.686803,-0.664890,-0.657478,-0.663118,-0.661506,-0.673913,-0.659895,-0.648455,-0.674396,-0.684225,-0.676169,-0.686481,-0.673591,-0.633471,-0.658606,-0.647166,-0.659573,-0.665373,-0.662795,-0.641688,-0.657478,-0.644266,-0.631054,-0.661184,-0.621548,-0.655545,-0.650389,-0.623159,-0.660379,-0.632826,-0.641688,-0.653128,-0.653772,-0.598829,-0.642172,-0.653450,-0.615264,-0.656673,-0.613975,-0.651839,-0.635243,-0.649422,-0.617520,-0.659412,-0.640721,-0.642494,-0.681808,-0.618970,-0.655223,-0.686481,-0.644911,-0.676169,-0.641205,-0.659734,-0.658767,-0.701143,-0.699371,-0.682614,-0.714033,-0.701143,-0.695987,-0.704527,-0.701949,-0.724023,-0.727245,-0.722411,-0.723539,-0.724989,-0.716450,-0.750769,-0.703882,-0.747869,-0.719833,-0.720639,-0.748513,-0.739813,-0.712583,-0.698565,-0.723700,-0.687125,-0.691637,-0.701949,-0.651033,-0.665535,-0.653611,-0.655061,-0.628315,-0.648133,-0.590612,-0.603341,-0.590290,-0.559354,-0.565799,-0.500221,-0.504894,-0.481370,-0.426749,-0.419981,-0.388562,-0.338775,-0.340064,-0.260952,-0.240489,-0.218254,-0.171367,-0.109495,-0.065025,-0.028611,0.032616,0.058557,0.109956,0.161033,0.195997,0.264152,0.326185,0.325219,0.401592,0.411581,0.472970,0.513734,0.555466,0.591558,0.614921,0.632806,0.654558,0.674537,0.686299,0.695645,0.708212,0.709340,0.709018,0.708535,0.685816,0.668576,0.657458,0.620560,0.586080,0.513734,0.454118,0.411742,0.319740,0.308623,0.218715,0.136703,0.069675,0.009415,-0.054068,-0.140431,-0.196663,-0.281254,-0.359077,-0.403708,-0.458974,-0.513111,-0.589484,-0.641205,-0.691475,-0.715483,-0.756731,-0.788150,-0.811996,-0.831331,-0.848571,-0.868228,-0.876607,-0.888691,-0.888852,-0.892558,-0.875962,-0.888369,-0.884663,-0.865167,-0.878702,-0.849055,-0.830848,-0.825853,-0.818602,-0.792822,-0.760437,-0.749963,-0.729178,-0.732562,-0.708555,-0.675524,-0.701626,-0.642655,-0.694698,-0.638143,-0.652161,-0.627993,-0.620903,-0.617681,-0.609302,-0.585456,-0.579172,-0.606563,-0.574661,-0.581589,-0.597862,-0.565315,-0.563543,-0.598346,-0.593351,-0.553392,-0.574177,-0.559998,-0.582556,-0.574177,-0.587873,-0.558226,-0.557581,-0.569666,-0.570310,-0.579494,-0.585778,-0.592706,-0.575950,-0.588839,-0.592384,-0.599635,-0.573372,-0.607691,-0.603824,-0.619775,-0.570955,-0.599796,-0.612847,-0.595929,-0.569343,-0.557259,-0.608658,-0.577722,-0.611880,-0.586906,-0.584167,-0.584328,-0.592545,-0.583200,-0.610591,-0.608013,-0.584650,-0.586745,-0.596090,-0.601407,-0.608658,-0.588034,-0.602535,-0.592868,-0.577239,-0.591740,-0.596573,-0.576433,-0.605596,-0.601246,-0.559998,-0.617358,-0.592062,-0.599151,-0.632021,-0.593512,-0.574177,-0.616392,-0.610108,-0.595446,-0.619775,-0.595123,-0.580139,-0.623481,-0.581750,-0.589162,-0.585939,-0.590934,-0.601568,-0.601085,-0.583684,-0.585295,-0.630571,-0.557098,-0.573533,-0.589484,-0.564026,-0.578205,-0.593190,-0.581267,-0.554198,-0.575466,-0.558226,-0.573533,-0.556292,-0.567571,-0.571921,-0.585456,-0.593512,-0.562737,-0.556454,-0.534702,-0.578689,-0.548558,-0.522295,-0.590934,-0.510533,-0.573049,-0.550492,-0.523584,-0.560159,-0.579172,-0.540663,-0.564349,-0.549203,-0.536796,-0.560965,-0.559354,-0.513595,-0.561932,-0.572888,-0.565638,-0.557581,-0.542597,-0.557581,-0.560643,-0.527290,-0.558870,-0.555809,-0.543564,-0.572244,-0.537280,-0.546303,-0.518912,-0.530513,-0.529062,-0.555487,-0.513917,-0.533091,-0.542597,-0.512467,-0.529062,-0.553392,-0.490715,-0.505055,-0.524551,-0.515367,-0.501994,-0.522456,-0.499577,-0.482820,-0.529224,-0.498610,-0.515850,-0.508277,-0.499738,-0.506988,-0.503283,-0.491682,-0.505216,-0.500221,-0.507794,-0.513595,-0.514400,-0.474119,-0.511339,-0.470736,-0.485559,-0.472830,-0.485881,-0.479436,-0.488137,-0.463807,-0.490393,-0.501349,-0.455590,-0.507150,-0.511822,-0.489265,-0.497321,-0.488298,-0.491843,-0.466546,-0.477503,-0.458329,-0.476858,-0.474280,-0.439639,-0.476536,-0.459618,-0.473797,-0.468158,-0.446889,-0.465741,-0.469447,-0.453334,-0.418531,-0.462035,-0.446567,-0.461874,-0.447211,-0.444472,-0.457846,-0.446084,-0.457201,-0.436094,-0.419015,-0.425460,-0.456073,-0.425621,-0.422721,-0.444150,-0.424171,-0.421432,-0.435127,-0.420465,-0.432388,-0.430132,-0.420626,-0.431905,-0.432066,-0.428843,-0.408381,-0.441733,-0.420948,-0.386629,-0.405158,-0.400324,-0.424654,-0.392107,-0.379378,-0.380667,-0.419015,-0.405641,-0.439316,-0.402580,-0.371644,-0.398874,-0.380023,-0.358271,-0.393235,-0.367777,-0.358593,-0.389368,-0.379378,-0.379056,-0.371966,-0.365199,-0.394846,-0.364071,-0.397263,-0.365683,-0.370033,-0.359560,-0.361010,-0.377122,-0.325563,-0.372128,-0.366488,-0.348765,-0.377445,-0.348603,-0.333780,-0.372450,-0.341514,-0.344253,-0.350054,-0.348603,-0.324918,-0.363105,-0.343125,-0.341031,-0.333458,-0.360204,-0.317668,-0.343448,-0.347315,-0.332008,-0.338775,-0.317345,-0.348926,-0.338775,-0.351343,-0.329913,-0.333941,-0.333458,-0.340225,-0.328624,-0.338292,-0.341031,-0.330558,-0.356499,-0.340386,-0.309289,-0.299622,-0.320085,-0.312512,-0.305744,-0.342481,-0.287699,-0.302361,-0.336680,-0.304939,-0.316701,-0.301394,-0.293821,-0.282543,-0.321051,-0.287215,-0.321212,-0.271264,-0.322179,-0.324918,-0.285121,-0.297366,-0.304294,-0.296238,-0.304455,-0.305100,-0.286893,-0.281415,-0.321051,-0.290760,-0.308806,-0.314767,-0.283026,-0.333780,-0.313962,-0.305583,-0.273036,-0.309773,-0.335230,-0.322179,-0.309773,-0.330074,-0.318796,-0.313156,-0.304294,-0.323790,-0.291404,-0.319279,-0.320568,-0.281898,-0.322340,-0.332169,-0.292693,-0.299622,-0.336197,-0.294466,-0.334102,-0.346187,-0.285926,-0.323307,-0.332491,-0.307517,-0.327013,-0.317507,-0.306228,-0.311062,-0.323952,-0.316379,-0.322179,-0.285926,-0.332169,-0.314445,-0.321212,-0.334908,-0.359721,-0.343931,-0.335714,-0.340064,-0.318634,-0.373578,-0.342320,-0.359077,-0.352954,-0.344737,-0.335875,-0.348603,-0.362782,-0.330880,-0.392268,-0.356982,-0.341836,-0.391946,-0.361010,-0.383890,-0.386145,-0.379056,-0.402258,-0.387757,-0.395974,-0.410797,-0.409025,-0.364394,-0.433033,-0.414020,-0.426426,-0.433194,-0.413859,-0.407736,-0.458007,-0.441894,-0.433355,-0.474925,-0.448984,-0.465902,-0.445600,-0.445600,-0.500866,-0.470736,-0.468963,-0.483625,-0.509083,-0.496515,-0.504088,-0.517300,-0.505055,-0.521651,-0.523101,-0.502477,-0.533574,-0.539858,-0.504410,-0.577400,-0.560965,-0.525034,-0.547592,-0.528257,-0.564832,-0.547753,-0.569343,-0.552587,-0.558387,-0.557420,-0.571599,-0.575144,-0.564671,-0.574983,-0.590128,-0.574499,-0.594962,-0.592384,-0.594962,-0.629926,-0.617520,-0.587067,-0.648133,-0.645233,-0.615264,-0.630571,-0.639755,-0.639110,-0.676169,-0.631376,-0.642977,-0.646039,-0.665051,-0.633471,-0.668113,-0.644588,-0.676974,-0.667629,-0.671013,-0.695342,-0.646522,-0.684225,-0.673752,-0.677297,-0.670529,-0.689220,-0.688414,-0.687447,-0.700015,-0.686642,-0.669079,-0.691314,-0.652645,-0.682453,-0.673268,-0.672785,-0.675685,-0.697759,-0.687931,-0.689059,-0.718705,-0.666985,-0.706621,-0.684225,-0.692442,-0.694376,-0.673913,-0.679875,-0.704043,-0.681486,-0.678263,-0.712099,-0.695826,-0.692764,-0.670368,-0.680358,-0.695181,-0.696793,-0.676813,-0.698565,-0.719994,-0.668435,-0.710810,-0.694859,-0.656350,-0.717416,-0.690348,-0.707588,-0.688897,-0.717255,-0.676652,-0.710649,-0.695504,-0.673268,-0.691475,-0.694053,-0.681325,-0.696954,-0.668596,-0.717900,-0.694376,-0.687447,-0.695987,-0.672302,-0.671013,-0.688575,-0.689220,-0.662957,-0.682936,-0.666018,-0.674880,-0.691153,-0.697920,-0.666985,-0.652806,-0.676652,-0.686642,-0.676813,-0.668918,-0.665212,-0.671496,-0.655061,-0.669885,-0.674396,-0.667146,-0.650228,-0.677135,-0.664246,-0.649583,-0.690025,-0.637499,-0.674074,-0.657317,-0.672302,-0.691637,-0.637016,-0.638788,-0.653450,-0.647005,-0.661506,-0.671013,-0.672141,-0.648616,-0.679391,-0.647811,-0.661345,-0.645716,-0.674235,-0.642816,-0.656350,-0.661990,-0.628476,-0.643783,-0.611558,-0.639110,-0.642977,-0.622676,-0.605113,-0.638627,-0.639755,-0.627831,-0.640238,-0.626381,-0.625737,-0.638788,-0.617036,-0.650550,-0.622676,-0.619936,-0.642977,-0.639755,-0.603018,-0.635565,-0.644911,-0.599796,-0.643299,-0.606563,-0.618164,-0.620098,-0.626704,-0.651517,-0.648778,-0.613330,-0.609141,-0.615425,-0.639755,-0.605113,-0.642977,-0.613330,-0.625898,-0.613008,-0.640721,-0.613814,-0.611236,-0.601246,-0.632343,-0.594318,-0.630248,-0.618970,-0.598829,-0.617842,-0.643622,-0.622998,-0.604630,-0.617358,-0.590128,-0.593351,-0.630087,-0.593673,-0.609141,-0.619131,-0.584328,-0.606885,-0.603985,-0.622514,-0.609624,-0.586906,-0.588034,-0.591256,-0.602857,-0.579978,-0.589484,-0.607530,-0.589645,-0.632826,-0.600440,-0.615264,-0.622031,-0.582072,-0.598507,-0.587873,-0.573694,-0.591579,-0.613814,-0.569988,-0.613008,-0.591901,-0.564026,-0.608819,-0.602857,-0.569021,-0.605919,-0.608819,-0.589162,-0.616069,-0.584489,-0.607208,-0.586100,-0.590128,-0.583200,-0.569666,-0.601729,-0.581428,-0.590612,-0.579655,-0.609463,-0.620903,-0.583200,-0.572888,-0.597057,-0.592062,-0.610430,-0.590612,-0.621225,-0.615103,-0.600118,-0.613169,-0.612202,-0.597540,-0.593995,-0.588839,-0.581267,-0.620259,-0.617197,-0.627831,-0.605919,-0.605435,-0.631376,-0.605758,-0.639755,-0.598507,-0.611719,-0.618486,-0.607691,-0.593029,-0.612364,-0.596090,-0.585939,-0.631537,-0.598829,-0.612686,-0.618809,-0.579172,-0.610752,-0.596412,-0.586100,-0.595929,-0.609141,-0.579172,-0.608013,-0.609141,-0.586584,-0.584167,-0.584489,-0.587712,-0.585778,-0.569505,-0.586262,-0.598829,-0.564188,-0.565799,-0.589001,-0.578366,-0.591901,-0.602374,-0.567732,-0.586745,-0.599474,-0.571599,-0.584811,-0.580944,-0.565154,-0.584006,-0.580300,-0.556454,-0.593029,-0.582878,-0.587712,-0.570955,-0.566121,-0.580783,-0.585295,-0.582717,-0.552587,-0.568216,-0.562415,-0.542436,-0.587067,-0.546464,-0.539858,-0.545819,-0.553714,-0.560482,-0.548075,-0.538891,-0.517139,-0.516495,-0.534541,-0.511178,-0.503283,-0.504572,-0.548881,-0.512789,-0.515850,-0.507150,-0.499255,-0.500382,-0.514400,-0.493776,-0.520040,-0.531157,-0.522940,-0.518106,-0.542275,-0.535669,-0.533896,-0.519878,-0.551459,-0.540663,-0.556776,-0.527612,-0.553553,-0.562093,-0.510855,-0.561126,-0.548881,-0.524712,-0.551620,-0.559676,-0.535185,-0.568054,-0.571760,-0.551298,-0.551298,-0.531157,-0.550814,-0.566443,-0.522134,-0.517300,-0.529385,-0.526807,-0.525195,-0.525357,-0.509889,-0.449145,-0.506505,-0.512467,-0.507633,-0.497966,-0.505377,-0.523745,-0.491843,-0.495871,-0.516495,-0.499577,-0.495710,-0.503121,-0.495549,-0.486526,-0.516817,-0.506022,-0.489587,-0.504088,-0.511178,-0.506827,-0.516011,-0.509244,-0.499093,-0.553553,-0.502799,-0.540180,-0.565154,-0.516011,-0.555326,-0.559515,-0.545819,-0.540986,-0.531157,-0.548236,-0.550331,-0.598829,-0.550170,-0.609302,-0.557420,-0.593512,-0.571277,-0.567249,-0.577077,-0.581589,-0.556937,-0.569021,-0.588195,-0.537763,-0.573049,-0.591901,-0.554842,-0.576111,-0.574338,-0.550331,-0.596735,-0.618647,-0.565154,-0.587712,-0.608497,-0.580944,-0.593995,-0.598990,-0.603180,-0.617520,-0.640560,-0.613975,-0.611558,-0.632021,-0.634115,-0.642333,-0.629282,-0.663440,-0.642655,-0.659412,-0.657639,-0.680841,-0.669724,-0.660540,-0.691153,-0.672463,-0.662312,-0.684547,-0.657478,-0.693248,-0.664407,-0.668113,-0.688897,-0.683419,-0.660540,-0.689542,-0.680197,-0.679391,-0.686803,-0.683097,-0.657801,-0.668274,-0.663118,-0.668918,-0.685192,-0.676813,-0.663279,-0.654739,-0.670368,-0.684708,-0.660701,-0.636854,-0.686642,-0.673752,-0.670207,-0.637499,-0.683903,-0.679230,-0.676813,-0.676330,-0.668757,-0.680197,-0.666179,-0.664084,-0.688575,-0.671335,-0.692926,-0.682453,-0.666662,-0.666985,-0.685836,-0.652645,-0.648455,-0.677619,-0.684869,-0.692764,-0.656995,-0.647328,-0.672624,-0.660217,-0.678102,-0.683097,-0.660379,-0.658445,-0.696148,-0.638788,-0.662634,-0.675202,-0.637016,-0.634760,-0.641366,-0.665373,-0.636532,-0.650228,-0.628154,-0.651678,-0.651356,-0.648778,-0.675524,-0.646844,-0.679391,-0.679552,-0.666501,-0.664890,-0.679552,-0.705493,-0.667629,-0.720317,-0.700821,-0.685675,-0.731756,-0.677941,-0.709521,-0.729340,-0.736590,-0.733207,-0.742230,-0.732884,-0.738685,-0.735946,-0.720800,-0.723539,-0.740779,-0.733529,-0.727728,-0.729823,-0.717578,-0.722089,-0.700660,-0.692281,-0.711616,-0.657962,-0.668113,-0.672141,-0.652967,-0.638143,-0.623965,-0.620903,-0.562415,-0.579817,-0.558548,-0.555003,-0.544530,-0.490393,-0.487654,-0.447856,-0.439961,-0.401452,-0.339097,-0.321696,-0.274164,-0.266269,-0.220993,-0.194247,-0.107723,-0.116424,-0.054230,-0.003475,0.032133,0.061458,0.139442,0.197608,0.210659,0.272209,0.323607,0.372267,0.431561,0.465236,0.513573,0.566261,0.596875,0.623461,0.648435,0.675343,0.689361,0.703056,0.716913,0.728675,0.736087,0.741404,0.745593,0.737537,0.725453,0.717235,0.676954,0.628455,0.614115,0.534842,0.454279,0.463464,0.370978,0.286871,0.210176,0.160066,0.067258,0.012315,-0.045368,-0.142848,-0.183290,-0.257891,-0.306872,-0.378411,-0.435772,-0.498610,-0.558709,-0.612847,-0.640883,-0.679713,-0.744808,-0.764787,-0.766882,-0.822953,-0.808290,-0.831814,-0.842771,-0.848571,-0.866778,-0.861784,-0.869195,-0.857433,-0.866134,-0.861461,-0.841965,-0.840999,-0.816185,-0.813446,-0.797495,-0.784444,-0.764142,-0.740296,-0.747547,-0.730629,-0.693570,-0.691475,-0.718705,-0.655545,-0.673107,-0.651517,-0.662312,-0.631537,-0.672785,-0.615264,-0.613169,-0.589323,-0.599957,-0.603018,-0.630893,-0.597379,-0.595929,-0.589162,-0.599957,-0.594157,-0.611719,-0.585295,-0.592706,-0.604307,-0.549364,-0.629282,-0.599796,-0.606885,-0.609141,-0.594801,-0.611075,-0.594962,-0.595446,-0.604630,-0.605758,-0.612525,-0.621387,-0.620259,-0.599474,-0.643944,-0.650228,-0.612686,-0.627831,-0.612202,-0.627509,-0.608013,-0.607046,-0.643138,-0.636693,-0.626543,-0.614297,-0.624609,-0.612847,-0.629443,-0.622837,-0.636371,-0.602213,-0.642655,-0.619453,-0.614942,-0.643461,-0.618970,-0.646200,-0.590451,-0.618809,-0.654256,-0.626381,-0.636532,-0.625092,-0.634115,-0.609302,-0.643299,-0.643461,-0.584489,-0.642333,-0.599313,-0.644427,-0.620098,-0.618809,-0.626704,-0.635082,-0.598829,-0.605596,-0.655706,-0.600440,-0.607852,-0.619614,-0.634276,-0.589967,-0.622837,-0.557904,-0.612202,-0.628798,-0.594479,-0.613653,-0.615908,-0.596090,-0.613491,-0.572244,-0.581106,-0.596896,-0.580139,-0.571277,-0.609786,-0.560965,-0.568054,-0.628476,-0.589162,-0.596412,-0.585778,-0.576916,-0.611719,-0.570955,-0.611719,-0.593190,-0.585456,-0.578850,-0.605758,-0.589162,-0.588195,-0.608335,-0.584489,-0.577077,-0.595446,-0.584811,-0.585939,-0.602213,-0.587550,-0.570471,-0.606402,-0.578850,-0.588356,-0.585939,-0.563060,-0.565638,-0.556937,-0.571599,-0.580300,-0.588517,-0.572566,-0.566927,-0.570310,-0.555326,-0.566121,-0.529385,-0.573533,-0.579655,-0.572566,-0.535507,-0.587550,-0.595607,-0.555487,-0.583845,-0.530351,-0.575627,-0.574016,-0.561126,-0.565315,-0.571438,-0.569182,-0.527451,-0.537280,-0.554681,-0.544047,-0.550009,-0.532446,-0.566927,-0.553231,-0.544047,-0.536152,-0.548075,-0.543564,-0.535024,-0.549525,-0.516011,-0.546142,-0.527773,-0.535830,-0.520362,-0.531963,-0.524068,-0.537441,-0.525518,-0.497160,-0.518912,-0.501833,-0.524551,-0.525034,-0.504733,-0.526968,-0.537602,-0.521973,-0.501671,-0.511661,-0.478953,-0.495549,-0.537924,-0.494421,-0.497160,-0.511661,-0.508761,-0.528096,-0.489265,-0.494421,-0.512467,-0.481047,-0.492810,-0.506022,-0.455751,-0.507633,-0.486365,-0.471541,-0.523262,-0.499416,-0.480725,-0.507955,-0.516978,-0.470091,-0.491359,-0.503605,-0.478308,-0.478147,-0.494582,-0.482336,-0.484431,-0.473958,-0.471863,-0.469447,-0.476375,-0.469447,-0.476375,-0.442700,-0.467513,-0.497966,-0.463485,-0.482659,-0.432549,-0.431260,-0.453818,-0.431260,-0.450112,-0.453012,-0.427232,-0.455107,-0.443506,-0.443667,-0.433516,-0.436738,-0.424976,-0.447534,-0.431260,-0.428038,-0.423687,-0.444311,-0.402580,-0.431260,-0.468641,-0.385018,-0.429810,-0.443183,-0.415309,-0.417726,-0.423204,-0.432710,-0.395813,-0.424815,-0.386951,-0.393879,-0.426265,-0.380667,-0.395974,-0.381634,-0.382923,-0.376961,-0.398713,-0.375189,-0.356660,-0.389529,-0.362621,-0.402580,-0.376317,-0.383084,-0.375672,-0.384212,-0.396457,-0.390496,-0.341836,-0.378089,-0.370839,-0.356499,-0.342964,-0.353759,-0.349892,-0.366649,-0.333136,-0.360366,-0.357626,-0.349892,-0.339581,-0.346187,-0.329752,-0.349409,-0.365199,-0.348765,-0.342159,-0.353598,-0.341031,-0.373094,-0.364233,-0.346670,-0.326207,-0.367133,-0.355048,-0.327496,-0.366649,-0.326529,-0.361493,-0.343286,-0.345381,-0.336358,-0.350215,-0.339258,-0.349892,-0.315895,-0.366811,-0.340547,-0.370839,-0.337808,-0.364877,-0.331685,-0.365199,-0.348926,-0.340547,-0.334586,-0.335230,-0.327335,-0.310578,-0.371322,-0.331847,-0.320407,-0.312995,-0.327657,-0.362460,-0.324596,-0.338292,-0.352793,-0.350537,-0.323468,-0.381634,-0.354243,-0.322340,-0.373094,-0.356015,-0.325563,-0.372772,-0.331685,-0.347153,-0.365844,-0.373094,-0.333941,-0.373094,-0.335552,-0.363910,-0.363910,-0.349731,-0.348603,-0.372772,-0.339258,-0.356982,-0.366811,-0.366488,-0.375833,-0.377122,-0.377767,-0.386790,-0.346670,-0.392107,-0.398391,-0.392590,-0.375833,-0.384212,-0.396296,-0.364071,-0.414020,-0.381473,-0.414826,-0.387273,-0.411281,-0.414987,-0.403547,-0.398552,-0.424815,-0.395329,-0.395974,-0.420626,-0.425460,-0.404836,-0.428360,-0.448984,-0.404997,-0.421593,-0.438511,-0.458007,-0.435449,-0.438350,-0.454462,-0.443667,-0.419498,-0.474603,-0.472508,-0.463324,-0.471058,-0.473314,-0.472186,-0.510533,-0.504894,-0.460907,-0.513111,-0.515367,-0.506988,-0.548075,-0.507150,-0.537602,-0.509728,-0.546786,-0.560321,-0.541308,-0.529385,-0.537924,-0.582878,-0.551136,-0.583845,-0.600279,-0.580461,-0.587712,-0.612364,-0.584006,-0.579817,-0.605919,-0.586745,-0.598668,-0.634438,-0.614297,-0.621548,-0.614458,-0.627187,-0.640077,-0.643299,-0.618486,-0.639755,-0.620581,-0.646683,-0.663923,-0.641205,-0.654900,-0.657639,-0.647811,-0.675846,-0.663118,-0.668757,-0.668596,-0.687770,-0.675685,-0.677619,-0.704204,-0.684708,-0.708071,-0.685675,-0.684708,-0.710327,-0.696954,-0.690992,-0.703721,-0.707266,-0.697598,-0.709360,-0.711294,-0.695826,-0.707910,-0.718222,-0.723217,-0.698726,-0.727728,-0.701465,-0.715644,-0.709682,-0.732723,-0.707105,-0.717255,-0.720639,-0.725795,-0.722411,-0.726601,-0.723700,-0.718061,-0.727728,-0.729340,-0.743841,-0.732079,-0.725634,-0.723861,-0.734173,-0.732401,-0.728856,-0.721283,-0.739652,-0.712744,-0.734173,-0.745291,-0.693570,-0.750930,-0.719350,-0.728534,-0.722411,-0.700498,-0.724667,-0.743841,-0.717578,-0.741263,-0.720156,-0.729017,-0.749641,-0.734173,-0.749480,-0.745130,-0.741263,-0.754314,-0.725312,-0.723700,-0.742391,-0.741585,-0.721928,-0.737718,-0.732562,-0.700821,-0.758664,-0.723539,-0.737557,-0.726439,-0.727728,-0.731756,-0.732079,-0.740457,-0.718705,-0.736429,-0.713227,-0.717255,-0.717900,-0.720800,-0.725956,-0.717416,-0.719833,-0.736107,-0.707910,-0.718061,-0.707588,-0.710810,-0.727406,-0.715966,-0.706943,-0.714194,-0.717900,-0.717094,-0.698726,-0.721122,-0.697115,-0.692442,-0.723539,-0.667468,-0.710649,-0.699854,-0.704204,-0.689059,-0.703076,-0.718383,-0.676491,-0.702593,-0.697598,-0.697437,-0.714838,-0.678263,-0.700982,-0.691798,-0.725956,-0.701143,-0.722411,-0.681325,-0.675363,-0.665535,-0.683742,-0.681969,-0.649744,-0.684064,-0.690831,-0.678102,-0.693248,-0.708394,-0.656673,-0.683097,-0.680519,-0.665212,-0.707105,-0.670690,-0.659251,-0.669079,-0.665696,-0.674719,-0.661990,-0.647972,-0.656512,-0.687770,-0.668274,-0.648133,-0.697598,-0.635888,-0.660056,-0.663440,-0.649744,-0.673591,-0.659251,-0.655061,-0.688092,-0.651194,-0.656512,-0.662795,-0.674235,-0.658284,-0.694215,-0.647811,-0.663601,-0.669240,-0.658928,-0.637338,-0.673430,-0.664407,-0.663762,-0.640883,-0.669885,-0.633149,-0.652322,-0.623965,-0.651194,-0.643299,-0.642977,-0.658284,-0.668757,-0.625737,-0.669079,-0.676813,-0.632826,-0.660540,-0.638949,-0.637016,-0.658928,-0.662312,-0.663440,-0.631537,-0.666179,-0.635082,-0.678263,-0.649261,-0.646844,-0.660540,-0.652967,-0.658928,-0.642172,-0.630087,-0.638305,-0.651678,-0.663601,-0.652806,-0.669401,-0.627187,-0.652645,-0.642655,-0.626059,-0.647972,-0.648778,-0.645072,-0.661990,-0.636371,-0.653934,-0.677458,-0.634115,-0.676974,-0.626059,-0.625576,-0.652806,-0.646200,-0.629282,-0.614458,-0.666985,-0.619131,-0.639271,-0.656995,-0.627993,-0.656995,-0.633149,-0.645877,-0.642010,-0.657639,-0.614297,-0.624448,-0.668113,-0.622192,-0.636049,-0.632182,-0.648778,-0.631215,-0.628315,-0.625092,-0.646522,-0.633632,-0.652645,-0.637499,-0.632504,-0.651517,-0.656673,-0.630248,-0.670529,-0.653772,-0.624287,-0.654095,-0.654739,-0.619131,-0.643138,-0.661829,-0.640077,-0.665373,-0.637338,-0.639110,-0.654900,-0.646361,-0.674396,-0.624931,-0.642494,-0.637016,-0.651356,-0.637660,-0.634438,-0.664246,-0.625898,-0.652000,-0.624287,-0.659895,-0.657156,-0.638305,-0.641688,-0.657156,-0.615908,-0.621064,-0.639594,-0.638466,-0.639755,-0.655223,-0.619292,-0.629282,-0.673107,-0.615908,-0.622031,-0.656028,-0.629282,-0.647166,-0.662957,-0.638143,-0.636371,-0.626865,-0.657962,-0.647650,-0.657801,-0.623159,-0.643461,-0.652161,-0.629443,-0.661023,-0.634760,-0.593995,-0.661990,-0.641688,-0.652483,-0.627509,-0.647811,-0.604146,-0.645555,-0.622031,-0.631537,-0.633793,-0.585617,-0.616714,-0.615747,-0.587550,-0.608497,-0.601246,-0.593673,-0.607530,-0.567732,-0.590290,-0.612041,-0.558709,-0.567410,-0.565477,-0.569021,-0.588195,-0.550009,-0.559193,-0.535669,-0.575144,-0.522940,-0.510372,-0.535024,-0.533252,-0.561932,-0.540663,-0.557098,-0.527773,-0.508600,-0.532607,-0.540663,-0.532124,-0.533091,-0.596412,-0.510211,-0.536152,-0.555648,-0.545658,-0.539536,-0.561932,-0.557581,-0.562254,-0.562254,-0.557581,-0.555970,-0.613653,-0.563382,-0.563543,-0.569666,-0.596251,-0.559515,-0.593512,-0.570310,-0.581106,-0.572083,-0.555165,-0.576111,-0.556937,-0.536958,-0.537441,-0.545175,-0.532124,-0.532446,-0.532607,-0.501671,-0.541308,-0.500705,-0.512144,-0.565638,-0.476858,-0.535669,-0.518106,-0.529546,-0.542114,-0.542275,-0.521329,-0.523423,-0.523584,-0.541308,-0.524068,-0.544853,-0.551298,-0.543403,-0.535346,-0.577400,-0.564349,-0.551459,-0.571599,-0.588195,-0.543886,-0.574822,-0.620098,-0.552748,-0.594479,-0.597057,-0.585134,-0.601729,-0.607530,-0.599474,-0.597862,-0.621387,-0.619292,-0.618164,-0.605758,-0.607852,-0.632987,-0.613975,-0.627670,-0.623642,-0.635404,-0.601891,-0.601568,-0.609463,-0.604146,-0.635243,-0.601891,-0.617197,-0.611880,-0.633149,-0.628154,-0.634276,-0.596251,-0.632504,-0.661829,-0.632021,-0.640721,-0.670690,-0.645394,-0.665051,-0.644266,-0.653611,-0.661990,-0.686481,-0.675363,-0.684869,-0.650389,-0.664890,-0.692120,-0.653289,-0.707427,-0.704849,-0.703238,-0.702754,-0.695020,-0.697437,-0.697437,-0.698565,-0.702271,-0.686803,-0.706943,-0.674719,-0.715483,-0.688897,-0.672141,-0.694537,-0.685353,-0.689381,-0.703882,-0.690831,-0.689542,-0.732723,-0.696631,-0.709844,-0.705010,-0.700176,-0.701465,-0.722089,-0.700015,-0.694376,-0.731756,-0.690186,-0.723378,-0.694537,-0.710327,-0.726117,-0.699532,-0.712583,-0.696470,-0.704043,-0.698082,-0.711616,-0.710005,-0.700982,-0.741263,-0.686320,-0.700660,-0.701626,-0.666985,-0.695665,-0.720156,-0.708071,-0.713711,-0.710810,-0.710327,-0.700015,-0.712260,-0.686158,-0.721122,-0.685997,-0.689864,-0.707105,-0.713388,-0.687609,-0.714838,-0.670368,-0.681325,-0.715966,-0.670690,-0.700176,-0.707427,-0.675524,-0.696309,-0.692764,-0.691637,-0.670690,-0.708716,-0.690992,-0.712744,-0.723378,-0.689864,-0.706138,-0.713227,-0.718867,-0.720156,-0.720800,-0.755119,-0.733690,-0.732723,-0.760920,-0.754475,-0.753830,-0.739490,-0.782511,-0.761726,-0.770910,-0.776710,-0.750447,-0.745291,-0.781060,-0.769459,-0.752864,-0.770910,-0.737879,-0.727245,-0.729823,-0.737396,-0.723056,-0.723861,-0.702271,-0.693570,-0.710166,-0.668274,-0.668435,-0.600279,-0.627993,-0.617036,-0.586584,-0.589645,-0.560321,-0.531963,-0.506505,-0.519073,-0.449789,-0.428521,-0.435772,-0.395974,-0.347315,-0.316056,-0.262563,-0.246290,-0.215998,-0.154610,-0.114007,-0.084843,-0.018782,0.018276,0.062102,0.117207,0.142987,0.212109,0.268986,0.304595,0.371461,0.404170,0.463786,0.502617,0.581890,0.587369,0.630389,0.650046,0.678082,0.690005,0.704990,0.726903,0.736570,0.743982,0.748816,0.754616,0.738665,0.725614,0.713529,0.654719,0.665836,0.610409,0.535325,0.484893,0.438328,0.378229,0.298311,0.229188,0.148948,0.089654,0.018921,-0.068570,-0.117390,-0.199403,-0.213259,-0.329107,-0.391946,-0.440283,-0.511661,-0.554037,-0.632665,-0.648939,-0.683580,-0.739813,-0.775904,-0.802812,-0.831976,-0.838421,-0.856789,-0.872418,-0.887886,-0.889336,-0.877574,-0.887241,-0.884663,-0.895781,-0.891914,-0.878379,-0.874673,-0.859850,-0.863878,-0.848571,-0.828592,-0.837454,-0.755281,-0.788633,-0.794111,-0.765754,-0.768815,-0.725312,-0.712422,-0.708877,-0.684708,-0.690992,-0.687770,-0.676330,-0.659251,-0.679230,-0.643138,-0.644750,-0.630732,-0.637982,-0.643944,-0.620742,-0.613330,-0.632343,-0.622353,-0.605596,-0.624609,-0.608658,-0.620420,-0.626543,-0.643138,-0.600602,-0.648455,-0.637660,-0.627026,-0.661829,-0.638305,-0.603824,-0.654095,-0.638466,-0.636693,-0.605596,-0.640883,-0.636371,-0.652806,-0.628154,-0.640238,-0.681002,-0.620581,-0.672785,-0.675846,-0.630087,-0.677458,-0.667951,-0.643138,-0.671979,-0.662312,-0.637016,-0.656673,-0.692926,-0.646039,-0.673591,-0.659573,-0.672785,-0.663118,-0.665857,-0.664084,-0.661668,-0.677941,-0.677941,-0.674719,-0.644588,-0.699371,-0.664407,-0.662151,-0.668435,-0.676169,-0.639916,-0.665212,-0.655223,-0.647489,-0.664246,-0.655545,-0.672463,-0.677941,-0.667629,-0.661345,-0.640399,-0.651194,-0.651517,-0.651678,-0.665857,-0.657478,-0.657962,-0.638949,-0.661668,-0.625898,-0.642816,-0.645072,-0.645555,-0.622514,-0.628798,-0.615908,-0.630893,-0.652322,-0.642172,-0.653934,-0.596090,-0.618647,-0.616553,-0.649100,-0.628798,-0.607691,-0.636371,-0.600118,-0.615425,-0.644750,-0.600440,-0.631537,-0.612202,-0.614942,-0.613169,-0.634921,-0.622676,-0.594801,-0.632504,-0.637982,-0.639916,-0.603502,-0.607530,-0.617197,-0.602374,-0.600602,-0.618003,-0.596412,-0.609463,-0.598507,-0.574499,-0.613169,-0.595768,-0.552587,-0.604146,-0.602696,-0.601568,-0.586100,-0.607530,-0.581750,-0.601085,-0.584167,-0.599313,-0.601407,-0.593512,-0.581267,-0.581106,-0.559354,-0.602696,-0.576755,-0.581911,-0.612686,-0.583200,-0.562093,-0.563543,-0.618809,-0.530351,-0.581589,-0.570310,-0.584973,-0.553392,-0.589806,-0.569343,-0.549525,-0.559676,-0.565799,-0.574499,-0.526968,-0.549364,-0.577561,-0.542758,-0.534218,-0.559676,-0.544530,-0.542436,-0.555487,-0.546625,-0.531318,-0.580139,-0.530351,-0.516011,-0.551298,-0.513433,-0.547108,-0.532285,-0.537763,-0.517139,-0.541147,-0.531802,-0.553553,-0.527290,-0.530835,-0.546625,-0.501188,-0.507955,-0.521812,-0.515206,-0.552264,-0.520040,-0.524551,-0.481209,-0.550170,-0.511500,-0.500866,-0.521006,-0.475892,-0.499093,-0.511983,-0.515689,-0.472508,-0.493615,-0.484109,-0.498932,-0.505216,-0.503283,-0.479114,-0.485237,-0.497643,-0.496354,-0.458168,-0.477181,-0.496515,-0.493776,-0.459940,-0.498932,-0.459618,-0.453495,-0.470897,-0.450595,-0.454301,-0.461713,-0.477825,-0.470736,-0.454623,-0.475730,-0.479759,-0.498449,-0.442378,-0.470252,-0.454784,-0.456396,-0.448017,-0.456879,-0.426104,-0.449467,-0.437222,-0.431260,-0.460262,-0.407575,-0.463807,-0.421915,-0.399358,-0.424332,-0.446567,-0.414987,-0.422398,-0.429971,-0.402419,-0.427071,-0.441250,-0.399196,-0.427554,-0.399519,-0.409186,-0.408058,-0.412570,-0.401130,-0.400163,-0.374544,-0.389851,-0.420787,-0.384212,-0.398230,-0.371805,-0.361655,-0.408703,-0.387757,-0.366811,-0.400485,-0.366166,-0.356499,-0.413053,-0.369389,-0.375672,-0.374544,-0.356337,-0.370516,-0.369227,-0.371161,-0.364555,-0.376961,-0.356337,-0.334908,-0.368261,-0.334102,-0.379539,-0.359882,-0.362460,-0.359399,-0.361332,-0.348926,-0.363749,-0.362782,-0.309934,-0.337164,-0.373900,-0.361332,-0.359721,-0.347315,-0.374222,-0.337969,-0.342481,-0.354082,-0.349570,-0.348442,-0.345059,-0.398713,-0.333136,-0.327013,-0.344253,-0.332491,-0.322340,-0.342803,-0.326046,-0.338292,-0.343770,-0.343770,-0.335552,-0.345542,-0.321374,-0.376156,-0.344737,-0.339903,-0.334263,-0.375189,-0.344092,-0.353598,-0.336197,-0.345381,-0.369711,-0.315734,-0.353921,-0.338936,-0.341353,-0.353759,-0.327335,-0.357626,-0.346831,-0.355854,-0.324918,-0.377122,-0.347315,-0.335875,-0.353115,-0.321051,-0.336358,-0.331202,-0.347798,-0.353276,-0.348603,-0.347798,-0.332169,-0.351665,-0.328302,-0.363105,-0.349248,-0.326529,-0.371322,-0.368261,-0.345542,-0.361332,-0.361171,-0.326368,-0.374383,-0.394524,-0.372450,-0.371805,-0.369227,-0.377445,-0.353598,-0.379056,-0.351181,-0.400324,-0.366166,-0.393074,-0.426588,-0.363749,-0.425137,-0.437383,-0.393074,-0.414342,-0.424171,-0.429004,-0.404997,-0.431421,-0.432871,-0.413537,-0.460101,-0.436416,-0.429810,-0.431260,-0.440605,-0.464452,-0.438994,-0.455429,-0.487492,-0.475730,-0.464129,-0.477986,-0.489587,-0.458974,-0.516817,-0.498449,-0.491682,-0.539052,-0.522134,-0.522940,-0.513111,-0.532124,-0.536474,-0.547914,-0.541147,-0.558548,-0.560804,-0.565960,-0.573694,-0.558548,-0.587712,-0.576755,-0.578689,-0.588839,-0.602857,-0.602535,-0.608497,-0.633310,-0.596573,-0.623481,-0.625576,-0.606724,-0.625576,-0.641527,-0.636371,-0.633310,-0.662151,-0.621709,-0.638949,-0.668113,-0.643138,-0.662795,-0.666662,-0.686803,-0.664890,-0.690992,-0.664407,-0.673591,-0.699209,-0.686320,-0.695504,-0.694859,-0.694053,-0.699209,-0.708232,-0.689059,-0.711777,-0.688897,-0.682614,-0.721928,-0.701465,-0.730467,-0.737396,-0.713711,-0.715805,-0.726601,-0.731595,-0.708716,-0.719511,-0.728534,-0.699532,-0.747869,-0.699371,-0.730790,-0.731434,-0.731756,-0.754958,-0.741585,-0.729823,-0.751252,-0.762048,-0.745613,-0.745452,-0.738201,-0.744969,-0.754797,-0.734334,-0.745935,-0.758503,-0.755764,-0.746419,-0.755925,-0.742713,-0.725634,-0.759470,-0.737879,-0.746419,-0.728212,-0.746258,-0.768009,-0.744485,-0.734979,-0.740457,-0.741102,-0.738524,-0.766559,-0.750286,-0.724184,-0.748513,-0.726439,-0.733851,-0.731112,-0.739974,-0.752864,-0.741424,-0.750769,-0.726923,-0.772199,-0.723378,-0.755764,-0.754958,-0.747547,-0.741907,-0.742230,-0.746419,-0.748030,-0.751736,-0.734818,-0.750930,-0.714033,-0.750125,-0.744485,-0.735785,-0.734173,-0.749319,-0.730790,-0.709199,-0.751736,-0.745935,-0.718705,-0.757536,-0.721283,-0.733690,-0.742230,-0.742713,-0.719833,-0.732884,-0.732562,-0.726601,-0.741585,-0.734173,-0.714194,-0.714516,-0.704849,-0.749480,-0.694537,-0.742874,-0.715000,-0.708071,-0.711133,-0.728212,-0.728212,-0.713066,-0.738363,-0.706138,-0.719833,-0.715161,-0.684064,-0.704365,-0.701465,-0.684869,-0.719511,-0.688253,-0.684869,-0.702110,-0.706460,-0.678424,-0.723861,-0.690670,-0.691959,-0.687609,-0.716289,-0.675524,-0.705493,-0.690348,-0.690831,-0.713227,-0.690670,-0.685836,-0.672141,-0.683097,-0.705171,-0.686642,-0.673107,-0.683258,-0.685997,-0.671657,-0.697598,-0.709682,-0.637016,-0.674557,-0.689220,-0.688575,-0.698565,-0.652645,-0.647005,-0.666501,-0.662634,-0.677941,-0.691314,-0.675041,-0.672946,-0.702432,-0.656028,-0.665212,-0.676169,-0.679069,-0.679552,-0.673268,-0.657639,-0.677941,-0.683903,-0.647328,-0.671818,-0.647328,-0.692120,-0.654417,-0.661990,-0.658606,-0.677780,-0.673752,-0.665535,-0.659895,-0.668274,-0.657962,-0.690509,-0.640238,-0.688414,-0.635727,-0.656189,-0.642494,-0.693570,-0.641688,-0.632343,-0.670529,-0.649261,-0.643138,-0.653934,-0.648616,-0.657639,-0.656512,-0.653611,-0.659734,-0.647489,-0.654256,-0.645716,-0.657801,-0.642333,-0.645394,-0.643944,-0.645555,-0.636371,-0.666340,-0.628637,-0.645555,-0.644266,-0.644750,-0.645233,-0.609786,-0.642655,-0.625254,-0.618486,-0.649744,-0.652483,-0.626381,-0.643299,-0.629604,-0.648778,-0.644427,-0.659412,-0.629604,-0.642655,-0.642655,-0.628637,-0.641366,-0.658445,-0.632182,-0.646200,-0.640560,-0.637821,-0.665051,-0.647005,-0.620581,-0.632826,-0.624287,-0.649100,-0.621870,-0.636532,-0.641849,-0.637660,-0.607046,-0.640077,-0.653934,-0.621709,-0.674880,-0.643138,-0.628798,-0.631215,-0.640883,-0.626704,-0.633149,-0.630409,-0.630893,-0.636532,-0.622676,-0.657801,-0.624770,-0.615908,-0.650067,-0.624609,-0.637982,-0.646522,-0.640883,-0.616392,-0.610591,-0.645877,-0.601891,-0.641205,-0.603985,-0.620420,-0.622837,-0.628959,-0.627348,-0.632665,-0.624609,-0.627993,-0.647166,-0.639755,-0.632987,-0.642655,-0.626220,-0.644750,-0.651356,-0.637660,-0.629765,-0.641688,-0.628637,-0.628798,-0.663762,-0.619453,-0.639916,-0.630893,-0.637660,-0.637982,-0.630248,-0.639755,-0.625737,-0.638143,-0.618647,-0.640238,-0.647328,-0.616231,-0.623642,-0.622676,-0.635404,-0.640238,-0.619292,-0.644427,-0.642655,-0.633310,-0.655061,-0.644427,-0.633471,-0.627509,-0.638143,-0.628154,-0.634115,-0.652806,-0.621064,-0.644105,-0.648616,-0.611236,-0.652161,-0.655545,-0.642655,-0.647166,-0.642010,-0.625576,-0.612364,-0.628959,-0.610430,-0.632987,-0.623320,-0.614297,-0.657156,-0.630893,-0.627993,-0.623481,-0.626704,-0.632182,-0.623159,-0.622192,-0.624770,-0.633632,-0.637499,-0.631860,-0.632021,-0.632182,-0.682936,-0.636693,-0.652483,-0.667629,-0.653289,-0.643138,-0.655706,-0.627993,-0.624609,-0.643299,-0.627509,-0.633954,-0.652967,-0.635565,-0.621387,-0.633954,-0.628637,-0.629282,-0.621548,-0.610752,-0.617520,-0.633310,-0.578044,-0.628959,-0.576272,-0.593190,-0.595123,-0.604146,-0.569182,-0.595929,-0.588678,-0.556131,-0.597540,-0.556937,-0.558387,-0.544691,-0.541147,-0.546786,-0.524390,-0.548236,-0.533091,-0.540341,-0.531640,-0.510855,-0.532929,-0.511339,-0.531640,-0.512628,-0.508439,-0.512950,-0.537119,-0.504249,-0.543403,-0.544369,-0.541952,-0.542758,-0.535830,-0.547431,-0.542758,-0.544208,-0.570955,-0.543403,-0.524068,-0.546625,-0.589001,-0.533735,-0.528579,-0.574661,-0.527935,-0.565638,-0.535991,-0.564993,-0.543725,-0.569505,-0.543564,-0.539374,-0.533896,-0.545336,-0.542275,-0.547914,-0.538730,-0.553553,-0.517623,-0.534541,-0.533091,-0.510372,-0.514078,-0.527451,-0.493776,-0.504088,-0.516656,-0.493937,-0.508439,-0.543725,-0.485237,-0.498288,-0.505216,-0.520040,-0.536958,-0.532446,-0.495549,-0.536474,-0.493937,-0.518751,-0.517139,-0.508761,-0.547592,-0.533413,-0.549203,-0.557581,-0.550492,-0.552264,-0.532929,-0.577883,-0.551459,-0.550009,-0.569182,-0.555326,-0.559676,-0.590612,-0.553231,-0.575144,-0.587389,-0.586584,-0.589484,-0.579655,-0.593834,-0.600763,-0.598346,-0.607852,-0.593029,-0.578044,-0.600924,-0.638949,-0.599796,-0.582717,-0.594479,-0.586584,-0.620903,-0.594157,-0.612202,-0.604307,-0.613008,-0.596412,-0.617681,-0.631376,-0.595123,-0.628959,-0.626865,-0.603824,-0.649100,-0.649261,-0.641205,-0.647811,-0.678586,-0.635404,-0.652806,-0.674557,-0.673591,-0.707910,-0.665857,-0.671335,-0.675846,-0.646361,-0.691153,-0.665373,-0.674719,-0.690831,-0.684708,-0.677297,-0.691959,-0.704043,-0.674074,-0.696954,-0.680841,-0.681808,-0.692120,-0.687125,-0.699048,-0.703399,-0.685353,-0.707427,-0.707588,-0.683097,-0.674074,-0.701465,-0.695826,-0.721122,-0.663923,-0.715966,-0.690992,-0.710327,-0.679552,-0.672946,-0.720800,-0.659734,-0.698082,-0.687125,-0.688736,-0.683742,-0.714677,-0.674557,-0.685997,-0.681969,-0.692442,-0.684869,-0.682614,-0.686320,-0.690509,-0.681325,-0.686803,-0.700660,-0.683742,-0.679069,-0.693570,-0.668757,-0.678102,-0.671979,-0.680519,-0.682614,-0.664084,-0.641366,-0.690348,-0.666985,-0.673913,-0.682453,-0.656350,-0.664246,-0.693248,-0.673752,-0.663601,-0.708877,-0.677135,-0.681164,-0.673268,-0.700821,-0.686158,-0.698887,-0.670852,-0.677297,-0.711777,-0.694537,-0.713711,-0.700176,-0.695987,-0.725150,-0.708716,-0.718383,-0.728534,-0.724506,-0.733368,-0.748352,-0.736912,-0.726278,-0.741424,-0.731112,-0.738201,-0.710327,-0.757214,-0.730629,-0.736590,-0.700015,-0.709844,-0.730790,-0.675846,-0.702593,-0.684708,-0.665857,-0.665212,-0.687286,-0.645716,-0.614297,-0.621064,-0.574177,-0.606724,-0.565799,-0.533896,-0.565638,-0.506344,-0.465741,-0.465580,-0.430616,-0.383890,-0.373094,-0.364877,-0.325402,-0.289310,-0.219060,-0.251768,-0.184740,-0.157994,-0.095316,-0.061319,-0.016688,-0.004120,0.090460,0.110923,0.140248,0.244656,0.258674,0.281554,0.360666,0.407714,0.432044,0.496977,0.509062,0.560783,0.604770,0.635706,0.652463,0.684205,0.705473,0.719491,0.736731,0.753650,0.757355,0.769440,0.779268,0.770084,0.754133,0.750266,0.712079,0.689361,0.644568,0.599775,0.554982,0.477965,0.429144,0.358732,0.285904,0.232089,0.180851,0.069997,0.026977,-0.095800,-0.102083,-0.203108,-0.269330,-0.346187,-0.386468,-0.495871,-0.515206,-0.581589,-0.656028,-0.682936,-0.722734,-0.793145,-0.792822,-0.822630,-0.841804,-0.860817,-0.864523,-0.889980,-0.895136,-0.908832,-0.909476,-0.919627,-0.916727,-0.905932,-0.903998,-0.911893,-0.897553,-0.872095,-0.886758,-0.882569,-0.872740,-0.846960,-0.824886,-0.814252,-0.784605,-0.776066,-0.761242,-0.770910,-0.727406,-0.740779,-0.720639,-0.677458,-0.689542,-0.694376,-0.616069,-0.681969,-0.661345,-0.636049,-0.615103,-0.627348,-0.629765,-0.629282,-0.638627,-0.593190,-0.631860,-0.623965,-0.596090,-0.622192,-0.586423,-0.624931,-0.638627,-0.598507,-0.601729,-0.618486,-0.614619,-0.617520,-0.604952,-0.637499,-0.629282,-0.633471,-0.625415,-0.641044,-0.621225,-0.614297,-0.673752,-0.631860,-0.610269,-0.669401,-0.634760,-0.657478,-0.649422,-0.656995,-0.666340,-0.618809,-0.633471,-0.652483,-0.644105,-0.606724,-0.633632,-0.650711,-0.614297,-0.653772,-0.633471,-0.622998,-0.654739,-0.649422,-0.631376,-0.640883,-0.632343,-0.623481,-0.659734,-0.652322,-0.635404,-0.616714,-0.657317,-0.635082,-0.637499,-0.632343,-0.628959,-0.624770,-0.640399,-0.646039,-0.603985,-0.629282,-0.648939,-0.605435,-0.635888,-0.626865,-0.629604,-0.621064,-0.644588,-0.620581,-0.611719,-0.643138,-0.603824,-0.622192,-0.606724,-0.623642,-0.628959,-0.625254,-0.606241,-0.636854,-0.639432,-0.601891,-0.637016,-0.601407,-0.629765,-0.624448,-0.608819,-0.612847,-0.609624,-0.600118,-0.610108,-0.616069,-0.595284,-0.638788,-0.622837,-0.579011,-0.633471,-0.591095,-0.629443,-0.599957,-0.605596,-0.589645,-0.597379,-0.616553,-0.584167,-0.590128,-0.584973,-0.584006,-0.596573,-0.566765,-0.587389,-0.596735,-0.564510,-0.567732,-0.608335,-0.567571,-0.578205,-0.583845,-0.574338,-0.580783,-0.594801,-0.601085,-0.566282,-0.572888,-0.559837,-0.576111,-0.570794,-0.579494,-0.550653,-0.539213,-0.563221,-0.563543,-0.539697,-0.563221,-0.563543,-0.541308,-0.547914,-0.572083,-0.536474,-0.520040,-0.589162,-0.540341,-0.558065,-0.545175,-0.535669,-0.564026,-0.550814,-0.537280,-0.537280,-0.525357,-0.529868,-0.549364,-0.485237,-0.523262,-0.530674,-0.522940,-0.541791,-0.530513,-0.518267,-0.531963,-0.518267,-0.521006,-0.536313,-0.507955,-0.493776,-0.513917,-0.537441,-0.540180,-0.501027,-0.506505,-0.514561,-0.525679,-0.518267,-0.517462,-0.530190,-0.471058,-0.511500,-0.519234,-0.462357,-0.525840,-0.502799,-0.483303,-0.501671,-0.533735,-0.463968,-0.484109,-0.539697,-0.457201,-0.507472,-0.500221,-0.487331,-0.499738,-0.494099,-0.477664,-0.483787,-0.493937,-0.495710,-0.496838,-0.450595,-0.493132,-0.483948,-0.460424,-0.489265,-0.481370,-0.472830,-0.451884,-0.479920,-0.457040,-0.470574,-0.489587,-0.447856,-0.482498,-0.434483,-0.474280,-0.449951,-0.455429,-0.432549,-0.452206,-0.463646,-0.453818,-0.459940,-0.408219,-0.435611,-0.461874,-0.424815,-0.442700,-0.424654,-0.417887,-0.414826,-0.457201,-0.424976,-0.424010,-0.396618,-0.411281,-0.430132,-0.428038,-0.403063,-0.405964,-0.410314,-0.393396,-0.422076,-0.407253,-0.396296,-0.422721,-0.409025,-0.406447,-0.374867,-0.417403,-0.373578,-0.396780,-0.406930,-0.370355,-0.399196,-0.399841,-0.392913,-0.392268,-0.351020,-0.403869,-0.376478,-0.376317,-0.387918,-0.371322,-0.343609,-0.366811,-0.387112,-0.346831,-0.364394,-0.346026,-0.343770,-0.363910,-0.357143,-0.361010,-0.363588,-0.327818,-0.362460,-0.347637,-0.352470,-0.345542,-0.371483,-0.346992,-0.380828,-0.334908,-0.327013,-0.353598,-0.341997,-0.335552,-0.354404,-0.362782,-0.353921,-0.354082,-0.332008,-0.351020,-0.329269,-0.323307,-0.343931,-0.329752,-0.345542,-0.341836,-0.323468,-0.318634,-0.321051,-0.366488,-0.286410,-0.349248,-0.331202,-0.325402,-0.313317,-0.329913,-0.324435,-0.307517,-0.313478,-0.331041,-0.333136,-0.312995,-0.288021,-0.328463,-0.297366,-0.338130,-0.319601,-0.298655,-0.332813,-0.309289,-0.301394,-0.303972,-0.331041,-0.281898,-0.321696,-0.308322,-0.309934,-0.322501,-0.315895,-0.288988,-0.312351,-0.324435,-0.303650,-0.304778,-0.317184,-0.269653,-0.325724,-0.288665,-0.299300,-0.319440,-0.325240,-0.324757,-0.331524,-0.308000,-0.295594,-0.340547,-0.295755,-0.330396,-0.309289,-0.287215,-0.360527,-0.319923,-0.327013,-0.313801,-0.317184,-0.332813,-0.342642,-0.319923,-0.311062,-0.335552,-0.330558,-0.322340,-0.353276,-0.330558,-0.323146,-0.372128,-0.342803,-0.350376,-0.365683,-0.357465,-0.336197,-0.365038,-0.348442,-0.346187,-0.378573,-0.371161,-0.354404,-0.394846,-0.390657,-0.368422,-0.432871,-0.376478,-0.397585,-0.388401,-0.404191,-0.416759,-0.400163,-0.395168,-0.439800,-0.453334,-0.438994,-0.464774,-0.464129,-0.442378,-0.467835,-0.457685,-0.462840,-0.491843,-0.491198,-0.479114,-0.512950,-0.487492,-0.473636,-0.507955,-0.499093,-0.514239,-0.511822,-0.520523,-0.555809,-0.540502,-0.516817,-0.553231,-0.562093,-0.564026,-0.589484,-0.581106,-0.580461,-0.594801,-0.585456,-0.597057,-0.567893,-0.578689,-0.623965,-0.612041,-0.638949,-0.614458,-0.658606,-0.623642,-0.627509,-0.648939,-0.617681,-0.637499,-0.635565,-0.621387,-0.648133,-0.666340,-0.612364,-0.638466,-0.654900,-0.653450,-0.695987,-0.656189,-0.680036,-0.680197,-0.679713,-0.679713,-0.712905,-0.650067,-0.672946,-0.714194,-0.665373,-0.706299,-0.722734,-0.703399,-0.690509,-0.714355,-0.697276,-0.709199,-0.710488,-0.715966,-0.706138,-0.732723,-0.721283,-0.739813,-0.722572,-0.725795,-0.735462,-0.726278,-0.721767,-0.731112,-0.729984,-0.750447,-0.714355,-0.741746,-0.727406,-0.732401,-0.731434,-0.742068,-0.724345,-0.728051,-0.731918,-0.757375,-0.728051,-0.748030,-0.755925,-0.726601,-0.741746,-0.740296,-0.750286,-0.715644,-0.761242,-0.739974,-0.742230,-0.754475,-0.745130,-0.749641,-0.738685,-0.746741,-0.730790,-0.724989,-0.762048,-0.744969,-0.728051,-0.754153,-0.747547,-0.732723,-0.734012,-0.754636,-0.723217,-0.749158,-0.734979,-0.736107,-0.742713,-0.744646,-0.724506,-0.736268,-0.710971,-0.743196,-0.736429,-0.728534,-0.716933,-0.741907,-0.722895,-0.733851,-0.741585,-0.738846,-0.729017,-0.750769,-0.724184,-0.730629,-0.733207,-0.704688,-0.721445,-0.727406,-0.719189,-0.722089,-0.727245,-0.737718,-0.694537,-0.725473,-0.715966,-0.711616,-0.729340,-0.726278,-0.721928,-0.708555,-0.709199,-0.726923,-0.738685,-0.709682,-0.710327,-0.687931,-0.698565,-0.728051,-0.690186,-0.710005,-0.733529,-0.698243,-0.709360,-0.721283,-0.688414,-0.721767,-0.709360,-0.701143,-0.682291,-0.714033,-0.676813,-0.703238,-0.690992,-0.722411,-0.681002,-0.692926,-0.693570,-0.700176,-0.692281,-0.694859,-0.719994,-0.669563,-0.679391,-0.694376,-0.673268,-0.693409,-0.677458,-0.691798,-0.660540,-0.701143,-0.690186,-0.678102,-0.714033,-0.680680,-0.684386,-0.690992,-0.688253,-0.694698,-0.704204,-0.684869,-0.674074,-0.667790,-0.690831,-0.708232,-0.673591,-0.655867,-0.695987,-0.668274,-0.656350,-0.696793,-0.673430,-0.641849,-0.695020,-0.655061,-0.664890,-0.690348,-0.660701,-0.676169,-0.663762,-0.676974,-0.664407,-0.669401,-0.647811,-0.670207,-0.674235,-0.658284,-0.676169,-0.661829,-0.651033,-0.660540,-0.638949,-0.665535,-0.644105,-0.643461,-0.656673,-0.652645,-0.619614,-0.639755,-0.688253,-0.650872,-0.672141,-0.668113,-0.658123,-0.659895,-0.681325,-0.632665,-0.661990,-0.620098,-0.647811,-0.661506,-0.652806,-0.647489,-0.656512,-0.630571,-0.652000,-0.645072,-0.647811,-0.652483,-0.647166,-0.643944,-0.644750,-0.669563,-0.648294,-0.662151,-0.624448,-0.652322,-0.643138,-0.634276,-0.665212,-0.635888,-0.642655,-0.661668,-0.676652,-0.655384,-0.621870,-0.661668,-0.635565,-0.677458,-0.660862,-0.640238,-0.655545,-0.661990,-0.657962,-0.658284,-0.654578,-0.612686,-0.652645,-0.631860,-0.630732,-0.642494,-0.653450,-0.637177,-0.653289,-0.653128,-0.632987,-0.674880,-0.645877,-0.657317,-0.666340,-0.649422,-0.659412,-0.646844,-0.665373,-0.644588,-0.640238,-0.627993,-0.643944,-0.664246,-0.604952,-0.679552,-0.625898,-0.653934,-0.672946,-0.630571,-0.619292,-0.674074,-0.652161,-0.638949,-0.671496,-0.639916,-0.649583,-0.642655,-0.639916,-0.650550,-0.648939,-0.656673,-0.635727,-0.652806,-0.635888,-0.639110,-0.649905,-0.625092,-0.659251,-0.616069,-0.661829,-0.647005,-0.658123,-0.622998,-0.648133,-0.642494,-0.610913,-0.665535,-0.643622,-0.630732,-0.649905,-0.642655,-0.654095,-0.638949,-0.642494,-0.649744,-0.640560,-0.644105,-0.646844,-0.622031,-0.638788,-0.669079,-0.649744,-0.629926,-0.643622,-0.644105,-0.647972,-0.655384,-0.656673,-0.631860,-0.641688,-0.656512,-0.630248,-0.666662,-0.643944,-0.652806,-0.629282,-0.642816,-0.655384,-0.656350,-0.624287,-0.645716,-0.669240,-0.645394,-0.658123,-0.647328,-0.648294,-0.650550,-0.630732,-0.652806,-0.647972,-0.682130,-0.645394,-0.646039,-0.655706,-0.657156,-0.666018,-0.653934,-0.651356,-0.635082,-0.665373,-0.638466,-0.639594,-0.641849,-0.659251,-0.669563,-0.637177,-0.668274,-0.660540,-0.635082,-0.639755,-0.669240,-0.637016,-0.659251,-0.665857,-0.635565,-0.679552,-0.640721,-0.632343,-0.643944,-0.640560,-0.650711,-0.643299,-0.640883,-0.641688,-0.652322,-0.663923,-0.611719,-0.678424,-0.631215,-0.647005,-0.648455,-0.661506,-0.658445,-0.640077,-0.661829,-0.666662,-0.634115,-0.636854,-0.680036,-0.652322,-0.631860,-0.677458,-0.640721,-0.647489,-0.669885,-0.645555,-0.627993,-0.669240,-0.625737,-0.655223,-0.674719,-0.631376,-0.662151,-0.619936,-0.655545,-0.673591,-0.662151,-0.641688,-0.630087,-0.682130,-0.656028,-0.641205,-0.647650,-0.626704,-0.663440,-0.657639,-0.644266,-0.641366,-0.634599,-0.659573,-0.647166,-0.646844,-0.651033,-0.644588,-0.613008,-0.649100,-0.655545,-0.636371,-0.654417,-0.661184,-0.604952,-0.666018,-0.642172,-0.637016,-0.660701,-0.640399,-0.612686,-0.645394,-0.624770,-0.623803,-0.587067,-0.620742,-0.604307,-0.591095,-0.592384,-0.579172,-0.625737,-0.571760,-0.591740,-0.571599,-0.559837,-0.571277,-0.560159,-0.558226,-0.581589,-0.539374,-0.542114,-0.572405,-0.557098,-0.566765,-0.562254,-0.541952,-0.555809,-0.548397,-0.533252,-0.561610,-0.561932,-0.529385,-0.559515,-0.571438,-0.533413,-0.593029,-0.559354,-0.535830,-0.586906,-0.569021,-0.557581,-0.575144,-0.588678,-0.555809,-0.579011,-0.592384,-0.570955,-0.564832,-0.562093,-0.581267,-0.571438,-0.555487,-0.589645,-0.571760,-0.537280,-0.535830,-0.553714,-0.522779,-0.532607,-0.561126,-0.532285,-0.534702,-0.527935,-0.517784,-0.500060,-0.524712,-0.496515,-0.502316,-0.519234,-0.489748,-0.510855,-0.497804,-0.502155,-0.527290,-0.484431,-0.501510,-0.518106,-0.510211,-0.504894,-0.554359,-0.512950,-0.520201,-0.549847,-0.518912,-0.542758,-0.557420,-0.531802,-0.540986,-0.532607,-0.555003,-0.530351,-0.573855,-0.569505,-0.581106,-0.577883,-0.576433,-0.584328,-0.581911,-0.582395,-0.580300,-0.582233,-0.583200,-0.602535,-0.571277,-0.601246,-0.574661,-0.585295,-0.596573,-0.600763,-0.613653,-0.590451,-0.618003,-0.580783,-0.610108,-0.597379,-0.550492,-0.607046,-0.582233,-0.572244,-0.602052,-0.617520,-0.577722,-0.596412,-0.620420,-0.588195,-0.624770,-0.622353,-0.602857,-0.635082,-0.638949,-0.639916,-0.632665,-0.665373,-0.640560,-0.662473,-0.655384,-0.644588,-0.664084,-0.655061,-0.653611,-0.645394,-0.681325,-0.667629,-0.670529,-0.673591,-0.696309,-0.671818,-0.666662,-0.694053,-0.681647,-0.673913,-0.686964,-0.654417,-0.689220,-0.672302,-0.667307,-0.668274,-0.695181,-0.677458,-0.681002,-0.705332,-0.685836,-0.685997,-0.687609,-0.684869,-0.694698,-0.682775,-0.690186,-0.701787,-0.688414,-0.689059,-0.700660,-0.694053,-0.687931,-0.671657,-0.687125,-0.694376,-0.693731,-0.688414,-0.663118,-0.690186,-0.677619,-0.698243,-0.692120,-0.656834,-0.686803,-0.661184,-0.697437,-0.708071,-0.665535,-0.672463,-0.684064,-0.681325,-0.653128,-0.672785,-0.666985,-0.649422,-0.686158,-0.642494,-0.669563,-0.662634,-0.711133,-0.644588,-0.679713,-0.669885,-0.658606,-0.685997,-0.661345,-0.689703,-0.685836,-0.657639,-0.676169,-0.688575,-0.650067,-0.687609,-0.656673,-0.681002,-0.693087,-0.659090,-0.696793,-0.688092,-0.692442,-0.686803,-0.700821,-0.714194,-0.677458,-0.702754,-0.705171,-0.710488,-0.729017,-0.716127,-0.725795,-0.712260,-0.714033,-0.726601,-0.733529,-0.702110,-0.705977,-0.716611,-0.681002,-0.702915,-0.694376,-0.675363,-0.654417,-0.634276,-0.643299,-0.639755,-0.642010,-0.598507,-0.592706,-0.542275,-0.567732,-0.545336,-0.514078,-0.519717,-0.505055,-0.472669,-0.450917,-0.431582,-0.401936,-0.376961,-0.376317,-0.332330,-0.306711,-0.248384,-0.225505,-0.218415,-0.129636,-0.105628,-0.087582,-0.054713,-0.004603,0.029233,0.085787,0.170378,0.157488,0.212754,0.257063,0.335208,0.363888,0.400303,0.475065,0.513251,0.528397,0.570450,0.597519,0.625394,0.651980,0.672443,0.688716,0.708696,0.727386,0.737698,0.744143,0.755261,0.754616,0.740760,0.734476,0.712240,0.680177,0.639412,0.614276,0.567389,0.490694,0.399336,0.367917,0.287515,0.207598,0.160549,0.064519,0.007964,-0.061802,-0.153965,-0.204881,-0.290115,-0.357304,-0.419820,-0.488943,-0.519717,-0.605758,-0.643944,-0.716772,-0.730145,-0.791856,-0.808129,-0.835359,-0.857594,-0.890141,-0.890464,-0.900614,-0.925105,-0.925750,-0.947018,-0.940734,-0.952496,-0.953785,-0.953946,-0.964097,-0.957491,-0.939929,-0.946696,-0.925428,-0.922366,-0.908993,-0.905609,-0.850827,-0.872740,-0.858883,-0.826981,-0.827947,-0.779610,-0.751414,-0.775743,-0.728051,-0.726439,-0.701304,-0.666824,-0.661990,-0.692603,-0.633632,-0.651678,-0.653289,-0.616875,-0.637982,-0.656350,-0.600440,-0.591901,-0.654578,-0.588195,-0.632021,-0.616069,-0.607208,-0.602052,-0.616231,-0.621225,-0.613008,-0.610591,-0.573372,-0.628959,-0.627348,-0.577883,-0.642655,-0.622837,-0.614780,-0.610591,-0.609624,-0.610108,-0.622514,-0.641849,-0.616392,-0.648939,-0.621225,-0.624287,-0.650711,-0.598829,-0.633310,-0.632504,-0.633310,-0.646361,-0.637660,-0.618325,-0.683580,-0.620420,-0.639110,-0.665051,-0.661184,-0.628476,-0.629282,-0.661345,-0.613330,-0.649261,-0.642816,-0.640560,-0.647811,-0.622676,-0.652161,-0.648616,-0.633632,-0.624770,-0.632665,-0.634760,-0.649100,-0.622676,-0.605758,-0.640560,-0.663440,-0.600924,-0.656028,-0.635565,-0.606724,-0.646683,-0.631537,-0.615103,-0.616069,-0.627831,-0.606402,-0.653611,-0.608819,-0.632987,-0.618003,-0.625737,-0.612364,-0.623642,-0.638143,-0.614297,-0.623320,-0.608174,-0.644427,-0.606885,-0.603985,-0.628959,-0.596090,-0.628637,-0.594962,-0.612686,-0.592545,-0.628154,-0.614297,-0.581589,-0.622192,-0.597701,-0.579655,-0.622192,-0.603824,-0.613491,-0.591901,-0.609947,-0.616553,-0.580139,-0.606724,-0.583684,-0.598185,-0.573533,-0.595768,-0.589323,-0.595284,-0.602857,-0.566604,-0.570471,-0.584811,-0.555487,-0.563060,-0.592868,-0.575627,-0.571277,-0.591901,-0.553231,-0.567732,-0.555326,-0.571921,-0.550009,-0.582717,-0.559998,-0.557259,-0.548720,-0.522456,-0.576111,-0.537763,-0.554520,-0.563382,-0.560643,-0.550009,-0.562093,-0.564349,-0.529385,-0.569505,-0.557098,-0.529062,-0.550009,-0.538569,-0.536152,-0.529546,-0.544853,-0.534218,-0.524390,-0.527773,-0.536313,-0.521167,-0.516817,-0.538730,-0.509405,-0.539052,-0.546142,-0.524229,-0.519073,-0.523906,-0.538408,-0.539213,-0.547269,-0.495226,-0.531640,-0.533252,-0.502477,-0.506666,-0.537924,-0.506988,-0.535507,-0.553070,-0.507311,-0.495388,-0.569021,-0.502638,-0.521006,-0.495710,-0.498932,-0.499416,-0.515850,-0.491198,-0.492648,-0.465580,-0.505538,-0.508439,-0.479759,-0.482175,-0.510372,-0.477181,-0.475086,-0.486365,-0.486687,-0.458651,-0.498288,-0.489104,-0.457040,-0.489587,-0.475408,-0.491198,-0.473152,-0.463646,-0.452529,-0.475892,-0.460424,-0.477181,-0.451078,-0.465902,-0.451401,-0.476375,-0.461068,-0.482981,-0.433677,-0.468158,-0.488137,-0.447211,-0.426104,-0.438511,-0.458812,-0.409992,-0.453012,-0.441894,-0.430455,-0.448017,-0.465902,-0.434644,-0.413214,-0.433516,-0.430938,-0.389690,-0.417403,-0.419659,-0.428521,-0.421754,-0.418531,-0.404030,-0.410959,-0.402902,-0.407575,-0.420948,-0.429004,-0.387434,-0.407414,-0.442539,-0.390818,-0.398713,-0.386468,-0.377928,-0.382440,-0.379539,-0.394363,-0.380667,-0.394846,-0.379056,-0.394524,-0.394040,-0.381473,-0.394040,-0.373578,-0.377928,-0.371483,-0.373900,-0.381956,-0.374706,-0.360688,-0.397746,-0.374383,-0.353759,-0.363910,-0.370839,-0.337325,-0.365683,-0.347476,-0.367616,-0.334263,-0.354404,-0.344737,-0.367938,-0.338453,-0.355210,-0.340225,-0.335875,-0.363910,-0.336841,-0.349248,-0.328785,-0.350537,-0.314929,-0.302200,-0.357304,-0.305422,-0.352470,-0.349248,-0.335875,-0.320407,-0.340708,-0.328463,-0.338453,-0.361655,-0.347798,-0.320246,-0.333297,-0.331847,-0.354726,-0.347315,-0.328785,-0.318151,-0.352309,-0.303489,-0.342481,-0.331202,-0.308161,-0.352309,-0.328624,-0.351826,-0.317990,-0.351343,-0.326207,-0.329913,-0.318796,-0.337325,-0.332652,-0.311223,-0.351665,-0.326529,-0.302844,-0.369066,-0.332813,-0.336036,-0.345059,-0.324435,-0.329913,-0.347315,-0.347959,-0.348281,-0.326852,-0.325240,-0.352309,-0.326207,-0.312512,-0.349731,-0.362138,-0.313962,-0.336197,-0.324274,-0.355048,-0.347959,-0.332652,-0.357304,-0.339097,-0.320729,-0.343448,-0.325563,-0.346509,-0.317345,-0.321051,-0.350698,-0.353759,-0.355532,-0.316701,-0.380345,-0.323790,-0.362138,-0.356176,-0.345220,-0.339097,-0.333458,-0.354243,-0.382762,-0.398391,-0.371644,-0.336358,-0.385984,-0.374706,-0.364233,-0.360527,-0.380828,-0.376639,-0.386145,-0.371644,-0.381795,-0.401613,-0.380023,-0.424171,-0.403063,-0.417887,-0.427554,-0.433516,-0.390335,-0.428199,-0.443667,-0.398713,-0.427715,-0.435772,-0.449467,-0.443828,-0.468641,-0.453012,-0.454462,-0.483303,-0.479114,-0.480725,-0.480242,-0.478792,-0.525195,-0.467191,-0.542436,-0.496515,-0.472991,-0.528901,-0.540019,-0.542597,-0.519556,-0.535507,-0.529062,-0.571116,-0.555809,-0.549847,-0.566604,-0.564188,-0.574661,-0.573210,-0.578850,-0.555970,-0.617358,-0.591095,-0.581750,-0.607691,-0.565154,-0.611719,-0.611397,-0.605435,-0.615103,-0.639594,-0.608980,-0.628154,-0.633149,-0.648616,-0.645233,-0.625898,-0.637177,-0.656834,-0.644911,-0.665696,-0.666662,-0.681647,-0.681002,-0.671979,-0.684547,-0.673913,-0.700660,-0.676652,-0.696148,-0.704688,-0.690670,-0.726762,-0.719994,-0.700660,-0.701304,-0.710488,-0.695826,-0.717416,-0.732401,-0.700821,-0.734173,-0.717739,-0.735946,-0.711777,-0.722734,-0.718222,-0.733529,-0.720317,-0.715805,-0.744646,-0.713549,-0.717255,-0.743035,-0.725956,-0.716611,-0.746419,-0.737879,-0.721928,-0.710810,-0.721122,-0.736590,-0.747708,-0.708877,-0.739490,-0.725634,-0.740457,-0.723539,-0.726923,-0.738846,-0.744324,-0.728212,-0.735785,-0.731918,-0.749480,-0.723217,-0.739813,-0.735785,-0.734173,-0.743519,-0.748513,-0.701626,-0.752864,-0.732723,-0.745452,-0.760598,-0.724345,-0.753508,-0.729340,-0.727245,-0.751414,-0.726278,-0.737074,-0.726762,-0.743519,-0.735140,-0.733690,-0.733368,-0.722895,-0.736751,-0.749319,-0.752864,-0.722250,-0.715322,-0.766237,-0.732562,-0.710166,-0.719511,-0.748836,-0.722411,-0.745774,-0.726923,-0.715805,-0.728212,-0.717255,-0.712099,-0.698887,-0.735785,-0.721283,-0.707749,-0.711294,-0.698726,-0.716127,-0.696793,-0.709521,-0.710810,-0.691959,-0.695342,-0.715483,-0.700660,-0.678263,-0.708555,-0.672141,-0.711455,-0.686158,-0.693409,-0.712422,-0.721606,-0.681969,-0.700015,-0.700821,-0.676008,-0.663762,-0.690992,-0.678263,-0.693409,-0.697276,-0.678586,-0.699048,-0.696793,-0.697276,-0.685675,-0.654900,-0.671496,-0.694376,-0.657962,-0.693892,-0.694698,-0.696470,-0.674719,-0.680841,-0.671979,-0.670207,-0.716611,-0.666985,-0.688736,-0.685031,-0.681647,-0.697115,-0.683097,-0.656028,-0.680841,-0.670690,-0.687125,-0.676169,-0.666824,-0.669079,-0.699048,-0.641527,-0.658445,-0.672141,-0.666340,-0.683742,-0.661506,-0.648455,-0.666340,-0.656028,-0.655545,-0.691798,-0.662312,-0.638949,-0.660379,-0.658767,-0.655223,-0.658445,-0.667629,-0.650872,-0.683903,-0.644588,-0.607530,-0.674396,-0.624931,-0.648294,-0.665051,-0.633793,-0.658767,-0.651678,-0.655867,-0.621548,-0.645394,-0.635082,-0.627831,-0.655545,-0.634599,-0.683419,-0.637982,-0.661184,-0.648616,-0.640721,-0.630893,-0.662795,-0.658445,-0.633632,-0.667307,-0.617842,-0.650067,-0.657317,-0.659895,-0.639110,-0.652000,-0.637338,-0.657156,-0.667146,-0.631537,-0.677297,-0.671818,-0.625254,-0.660217,-0.620098,-0.655223,-0.656834,-0.640560,-0.641688,-0.648133,-0.642655,-0.616553,-0.664246,-0.614942,-0.652000,-0.617036,-0.655867,-0.635565,-0.655706,-0.665535,-0.669724,-0.658928,-0.662957,-0.673591,-0.640721,-0.643299,-0.645716,-0.651678,-0.640399,-0.645877,-0.655867,-0.667307,-0.676330,-0.617036,-0.639916,-0.678102,-0.619453,-0.641849,-0.661829,-0.637499,-0.662957,-0.656028,-0.632182,-0.622837,-0.647650,-0.656834,-0.640238,-0.631376,-0.631376,-0.656189,-0.652000,-0.607369,-0.663279,-0.644750,-0.615264,-0.665696,-0.640077,-0.642655,-0.649583,-0.625737,-0.652161,-0.628637,-0.630248,-0.649583,-0.636210,-0.646200,-0.664890,-0.651033,-0.613653,-0.657317,-0.672785,-0.648133,-0.662957,-0.622514,-0.650067,-0.654256,-0.642494,-0.662151,-0.663279,-0.665696,-0.600924,-0.684386,-0.633954,-0.639110,-0.671818,-0.649261,-0.643461,-0.650389,-0.654739,-0.648939,-0.656834,-0.639916,-0.666018,-0.648455,-0.630893,-0.669885,-0.652322,-0.658767,-0.648455,-0.673752,-0.633954,-0.671174,-0.654256,-0.633954,-0.673913,-0.638788,-0.655223,-0.639432,-0.669240,-0.666340,-0.669079,-0.667629,-0.628154,-0.677135,-0.642172,-0.646039,-0.672141,-0.602374,-0.690831,-0.655706,-0.658767,-0.665373,-0.657156,-0.636210,-0.656189,-0.640399,-0.638627,-0.665051,-0.625092,-0.660540,-0.654417,-0.637177,-0.666985,-0.655867,-0.639916,-0.658284,-0.660379,-0.639755,-0.670368,-0.636210,-0.652161,-0.653611,-0.649905,-0.661829,-0.658445,-0.640399,-0.647328,-0.650228,-0.641205,-0.643299,-0.675685,-0.606885,-0.659734,-0.656512,-0.655384,-0.661990,-0.651678,-0.640721,-0.638949,-0.640721,-0.652483,-0.658445,-0.668918,-0.617842,-0.648616,-0.638788,-0.636371,-0.641849,-0.664084,-0.645394,-0.644105,-0.629765,-0.641849,-0.666662,-0.618325,-0.665857,-0.668435,-0.656995,-0.650389,-0.645233,-0.638466,-0.641366,-0.639594,-0.611236,-0.672785,-0.659251,-0.621548,-0.657478,-0.637177,-0.635727,-0.669240,-0.648778,-0.634115,-0.642977,-0.649583,-0.630571,-0.675846,-0.641527,-0.647005,-0.672141,-0.631698,-0.651678,-0.662795,-0.637016,-0.649905,-0.655061,-0.642655,-0.648455,-0.650389,-0.641044,-0.663601,-0.641366,-0.642010,-0.648455,-0.650711,-0.610591,-0.664084,-0.658606,-0.656189,-0.675202,-0.623642,-0.654578,-0.643944,-0.647328,-0.654578,-0.655384,-0.652806,-0.642333,-0.644588,-0.650872,-0.660701,-0.665857,-0.616714,-0.664568,-0.659895,-0.664729,-0.640721,-0.656673,-0.636854,-0.657317,-0.637338,-0.644911,-0.666824,-0.656512,-0.634760,-0.644427,-0.650550,-0.631215,-0.645233,-0.642816,-0.633793,-0.656028,-0.617358,-0.633793,-0.661990,-0.609624,-0.629120,-0.623642,-0.622514,-0.599151,-0.620742,-0.614136,-0.611236,-0.604791,-0.581911,-0.610430,-0.574822,-0.562415,-0.592545,-0.569505,-0.571116,-0.553714,-0.572566,-0.586262,-0.555487,-0.538891,-0.546625,-0.587712,-0.511983,-0.564026,-0.531640,-0.513756,-0.548397,-0.546786,-0.530029,-0.560321,-0.540180,-0.543403,-0.562899,-0.541791,-0.535185,-0.557259,-0.533896,-0.542275,-0.559515,-0.552909,-0.543886,-0.541308,-0.547592,-0.570632,-0.574338,-0.554681,-0.571921,-0.546625,-0.571438,-0.560804,-0.553553,-0.569343,-0.557259,-0.543886,-0.539536,-0.588034,-0.551942,-0.541791,-0.569343,-0.502316,-0.557259,-0.525840,-0.520362,-0.510211,-0.520040,-0.507472,-0.532446,-0.517623,-0.519556,-0.535185,-0.493776,-0.521006,-0.528257,-0.516817,-0.491359,-0.529385,-0.538569,-0.494260,-0.542275,-0.509083,-0.514884,-0.525679,-0.510211,-0.520523,-0.521006,-0.543564,-0.522134,-0.535669,-0.564026,-0.505861,-0.585778,-0.497966,-0.545819,-0.545336,-0.522618,-0.551298,-0.548881,-0.549364,-0.565477,-0.566927,-0.572244,-0.571438,-0.566121,-0.581106,-0.574016,-0.580139,-0.573372,-0.589967,-0.577722,-0.585778,-0.593673,-0.560804,-0.568538,-0.604952,-0.586262,-0.564671,-0.600763,-0.554037,-0.584167,-0.591095,-0.571277,-0.582556,-0.618809,-0.572405,-0.621548,-0.617036,-0.624770,-0.634276,-0.624448,-0.617842,-0.621870,-0.629282,-0.626220,-0.625898,-0.640077,-0.638627,-0.656834,-0.646522,-0.639432,-0.654900,-0.631860,-0.680519,-0.676813,-0.654417,-0.671818,-0.700337,-0.662795,-0.659090,-0.675685,-0.644911,-0.712260,-0.660217,-0.670529,-0.676008,-0.697759,-0.660540,-0.675041,-0.670046,-0.652645,-0.712099,-0.675363,-0.683580,-0.683419,-0.683580,-0.691153,-0.688736,-0.678747,-0.693892,-0.692603,-0.681969,-0.674235,-0.683097,-0.696954,-0.688092,-0.685997,-0.688575,-0.679391,-0.697115,-0.660217,-0.673268,-0.671174,-0.658284,-0.673268,-0.641849,-0.670852,-0.681969,-0.671818,-0.636210,-0.663601,-0.654578,-0.659090,-0.696954,-0.650389,-0.672624,-0.694053,-0.636693,-0.667307,-0.660379,-0.649905,-0.677297,-0.675363,-0.649744,-0.691798,-0.676813,-0.659412,-0.684386,-0.655706,-0.660701,-0.684708,-0.657639,-0.652806,-0.662473,-0.666985,-0.694698,-0.645716,-0.639594,-0.682453,-0.660862,-0.679391,-0.683903,-0.681164,-0.672624,-0.713227,-0.704365,-0.694215,-0.698404,-0.701304,-0.663279,-0.720478,-0.700337,-0.699048,-0.712099,-0.695987,-0.706299,-0.705654,-0.716933,-0.696148,-0.704527,-0.694859,-0.676169,-0.705977,-0.647650,-0.663279,-0.640238,-0.638305,-0.635243,-0.620098,-0.591901,-0.599796,-0.585778,-0.562737,-0.567571,-0.545175,-0.508922,-0.504733,-0.484109,-0.459940,-0.454945,-0.416114,-0.402741,-0.406447,-0.328141,-0.331685,-0.307517,-0.219382,-0.250318,-0.186996,-0.141720,-0.122224,-0.086616,-0.040856,-0.002670,0.038900,0.095133,0.106895,0.174406,0.208564,0.242884,0.343748,0.340525,0.393697,0.421571,0.504067,0.510834,0.568034,0.588980,0.612021,0.642634,0.663903,0.674537,0.696450,0.710468,0.716591,0.724486,0.731898,0.724486,0.711757,0.709018,0.677921,0.647146,0.603481,0.575284,0.490210,0.457985,0.386285,0.309267,0.239661,0.185362,0.118496,0.004420,-0.019910,-0.125930,-0.204881,-0.232755,-0.315734,-0.393718,-0.458007,-0.505699,-0.609947,-0.611880,-0.698082,-0.742230,-0.770265,-0.805229,-0.842288,-0.867262,-0.882569,-0.885630,-0.910765,-0.923816,-0.928328,-0.935901,-0.956363,-0.954752,-0.974087,-0.965064,-0.969737,-0.966192,-0.955397,-0.945246,-0.945407,-0.930583,-0.916405,-0.910926,-0.883374,-0.865489,-0.867745,-0.835359,-0.817313,-0.805874,-0.772843,-0.752058,-0.745291,-0.733851,-0.690831,-0.719672,-0.684708,-0.673591,-0.661184,-0.646844,-0.619614,-0.626704,-0.626704,-0.627509,-0.613169,-0.600279,-0.630248,-0.600602,-0.582878,-0.597218,-0.599474,-0.593351,-0.594318,-0.583522,-0.623159,-0.594962,-0.548720,-0.582233,-0.631698,-0.534702,-0.618164,-0.590128,-0.577722,-0.609786,-0.616231,-0.588356,-0.627993,-0.598346,-0.622998,-0.636049,-0.618809,-0.610752,-0.638143,-0.597218,-0.597540,-0.614297,-0.612686,-0.640238,-0.635565,-0.628637,-0.627026,-0.639110,-0.595284,-0.627187,-0.629604,-0.626543,-0.629443,-0.629926,-0.628637,-0.613330,-0.645877,-0.642172,-0.642010,-0.626865,-0.626543,-0.633149,-0.631376,-0.641688,-0.616714,-0.622837,-0.613330,-0.625737,-0.608335,-0.614136,-0.660217,-0.601407,-0.649100,-0.654739,-0.627831,-0.639432,-0.640883,-0.627348,-0.624448,-0.614942,-0.591901,-0.608335,-0.624770,-0.610269,-0.617681,-0.590612,-0.611880,-0.617036,-0.606402,-0.604952,-0.623642,-0.594479,-0.579655,-0.612364,-0.570310,-0.627026,-0.584973,-0.611558,-0.622514,-0.618486,-0.580783,-0.599151,-0.598507,-0.602857,-0.624287,-0.572405,-0.579978,-0.606724,-0.603663,-0.608335,-0.577400,-0.570632,-0.554681,-0.591095,-0.577400,-0.570794,-0.587389,-0.565315,-0.577400,-0.560321,-0.554520,-0.592545,-0.594640,-0.586745,-0.542758,-0.559032,-0.566765,-0.564026,-0.546303,-0.555003,-0.581267,-0.553714,-0.530351,-0.545658,-0.562899,-0.572405,-0.569021,-0.561771,-0.594157,-0.581750,-0.523101,-0.566121,-0.563543,-0.571116,-0.554359,-0.566282,-0.536474,-0.540019,-0.549042,-0.549525,-0.554842,-0.520845,-0.538408,-0.530513,-0.535346,-0.567249,-0.551942,-0.513917,-0.527612,-0.537441,-0.515850,-0.494904,-0.554037,-0.524712,-0.518428,-0.537763,-0.561932,-0.529385,-0.527129,-0.521167,-0.510533,-0.516011,-0.549364,-0.514078,-0.503444,-0.535346,-0.527451,-0.512789,-0.520523,-0.520523,-0.487009,-0.513595,-0.547753,-0.501994,-0.471541,-0.529707,-0.477503,-0.486042,-0.503283,-0.476053,-0.502155,-0.491521,-0.468158,-0.466385,-0.463485,-0.486526,-0.483948,-0.516011,-0.462196,-0.493776,-0.477503,-0.504572,-0.461229,-0.476375,-0.462035,-0.485398,-0.477019,-0.467191,-0.469769,-0.449628,-0.469285,-0.472347,-0.485881,-0.460907,-0.453334,-0.438350,-0.470897,-0.463163,-0.444472,-0.472186,-0.459779,-0.446406,-0.466546,-0.421915,-0.443667,-0.482336,-0.452367,-0.434644,-0.424815,-0.447373,-0.420787,-0.454945,-0.428199,-0.431260,-0.412892,-0.426265,-0.455751,-0.390818,-0.414987,-0.412086,-0.428038,-0.412892,-0.416437,-0.428199,-0.387918,-0.420626,-0.438188,-0.426749,-0.408542,-0.421109,-0.378411,-0.406608,-0.381312,-0.428521,-0.440605,-0.402902,-0.415953,-0.410314,-0.381312,-0.401613,-0.386951,-0.400485,-0.382440,-0.388240,-0.385984,-0.418370,-0.392913,-0.368422,-0.406286,-0.392590,-0.362460,-0.407414,-0.369872,-0.366811,-0.363266,-0.368261,-0.369227,-0.390012,-0.346348,-0.347959,-0.367455,-0.378895,-0.364555,-0.347959,-0.353276,-0.357949,-0.360849,-0.344575,-0.337808,-0.337969,-0.320246,-0.360204,-0.307517,-0.345220,-0.344253,-0.335230,-0.339742,-0.330396,-0.343125,-0.348281,-0.358915,-0.321374,-0.331685,-0.359077,-0.307033,-0.346026,-0.349409,-0.319601,-0.323468,-0.343770,-0.347153,-0.337486,-0.351665,-0.322985,-0.328785,-0.332813,-0.327818,-0.357465,-0.348926,-0.328946,-0.316862,-0.337647,-0.359882,-0.355371,-0.324596,-0.324596,-0.312673,-0.333297,-0.355693,-0.316862,-0.319118,-0.311867,-0.348765,-0.298333,-0.343448,-0.348603,-0.302361,-0.340547,-0.331202,-0.306389,-0.333941,-0.331685,-0.321696,-0.306228,-0.319118,-0.327335,-0.354404,-0.305261,-0.309611,-0.346509,-0.327818,-0.338775,-0.330558,-0.331363,-0.318151,-0.312028,-0.329430,-0.322663,-0.346026,-0.323146,-0.314606,-0.329913,-0.318634,-0.333136,-0.335230,-0.335391,-0.328785,-0.349248,-0.347153,-0.349087,-0.307839,-0.352470,-0.353598,-0.331363,-0.328946,-0.307517,-0.338292,-0.344092,-0.372611,-0.319279,-0.323146,-0.370355,-0.330235,-0.371966,-0.347637,-0.341192,-0.360527,-0.346348,-0.351826,-0.351987,-0.399358,-0.359560,-0.363749,-0.410636,-0.362621,-0.396296,-0.381956,-0.393235,-0.421754,-0.393074,-0.429327,-0.429327,-0.405319,-0.455590,-0.452045,-0.415309,-0.451723,-0.425943,-0.431099,-0.456557,-0.479275,-0.461713,-0.445117,-0.473958,-0.455912,-0.462035,-0.490232,-0.465741,-0.501349,-0.487815,-0.520362,-0.493937,-0.507955,-0.512789,-0.504088,-0.531318,-0.541147,-0.540019,-0.527290,-0.572244,-0.547592,-0.542436,-0.559998,-0.581750,-0.531318,-0.596412,-0.572566,-0.610269,-0.585456,-0.627187,-0.564026,-0.606885,-0.616231,-0.581106,-0.633310,-0.623481,-0.613330,-0.623320,-0.621064,-0.636210,-0.636210,-0.628959,-0.648294,-0.625092,-0.635727,-0.676330,-0.639432,-0.645072,-0.657801,-0.685514,-0.639916,-0.647005,-0.696470,-0.647489,-0.690509,-0.685997,-0.673913,-0.681002,-0.658445,-0.713872,-0.692120,-0.699048,-0.685192,-0.714033,-0.719672,-0.710488,-0.708555,-0.704849,-0.711294,-0.709521,-0.705816,-0.715644,-0.723217,-0.723217,-0.724345,-0.716933,-0.719994,-0.731756,-0.726601,-0.692120,-0.721767,-0.728534,-0.712583,-0.732723,-0.742713,-0.736590,-0.735623,-0.716611,-0.731112,-0.745774,-0.694215,-0.747869,-0.712583,-0.742391,-0.752864,-0.773004,-0.710327,-0.748513,-0.767204,-0.715644,-0.747063,-0.744002,-0.724828,-0.757536,-0.751897,-0.738685,-0.757697,-0.759631,-0.736912,-0.730306,-0.724023,-0.744324,-0.755119,-0.738524,-0.744324,-0.734173,-0.750125,-0.731756,-0.757214,-0.719189,-0.721122,-0.737074,-0.716450,-0.759953,-0.734334,-0.722734,-0.743680,-0.719189,-0.698243,-0.740296,-0.731756,-0.709199,-0.744324,-0.726439,-0.708716,-0.717900,-0.706621,-0.721767,-0.726601,-0.725956,-0.706943,-0.722411,-0.708716,-0.703238,-0.737396,-0.688092,-0.713549,-0.719028,-0.699209,-0.683580,-0.704688,-0.714838,-0.685675,-0.706621,-0.705654,-0.697437,-0.683903,-0.714033,-0.718061,-0.692926,-0.707749,-0.705332,-0.674719,-0.645233,-0.692926,-0.696793,-0.672624,-0.694376,-0.679713,-0.692926,-0.685514,-0.686964,-0.698887,-0.691475,-0.688092,-0.684386,-0.694859,-0.675202,-0.666662,-0.682936,-0.674557,-0.683258,-0.671979,-0.699048,-0.668274,-0.670207,-0.692764,-0.682614,-0.693892,-0.673107,-0.696631,-0.676974,-0.692603,-0.681647,-0.673591,-0.678102,-0.687931,-0.654095,-0.651517,-0.676491,-0.663440,-0.677619,-0.661668,-0.664729,-0.659895,-0.633954,-0.691314,-0.651678,-0.671979,-0.634921,-0.659412,-0.645394,-0.643783,-0.670690,-0.654578,-0.679875,-0.644750,-0.639271,-0.666018,-0.660701,-0.639271,-0.648616,-0.657317,-0.647650,-0.654095,-0.669885,-0.635082,-0.679875,-0.644105,-0.659573,-0.670207,-0.684708,-0.630409,-0.645555,-0.627831,-0.639432,-0.656995,-0.655384,-0.659090,-0.636532,-0.634760,-0.656834,-0.646039,-0.635888,-0.655384,-0.668757,-0.665857,-0.653611,-0.646200,-0.646200,-0.667307,-0.629282,-0.672624,-0.640077,-0.648455,-0.638305,-0.642494,-0.613814,-0.641044,-0.666018,-0.638627,-0.665857,-0.666501,-0.632504,-0.683580,-0.659895,-0.632021,-0.647650,-0.640721,-0.659251,-0.676652,-0.672463,-0.654578,-0.650228,-0.677941,-0.656350,-0.646039,-0.628476,-0.623481,-0.651678,-0.637499,-0.648133,-0.656350,-0.607208,-0.661184,-0.626543,-0.646361,-0.652322,-0.664246,-0.644266,-0.658928,-0.670207,-0.645877,-0.658123,-0.649905,-0.634438,-0.645555,-0.624126,-0.625898,-0.638466,-0.637982,-0.630248,-0.649100,-0.625254,-0.652322,-0.661023,-0.643299,-0.654578,-0.623320,-0.663118,-0.650228,-0.634276,-0.641849,-0.659895,-0.659895,-0.656995,-0.672785,-0.628476,-0.626543,-0.653611,-0.650228,-0.661345,-0.634438,-0.669885,-0.633471,-0.662634,-0.647489,-0.641366,-0.673107,-0.664568,-0.656028,-0.639432,-0.648939,-0.676008,-0.665696,-0.649100,-0.653611,-0.656995,-0.652483,-0.687447,-0.665696,-0.660701,-0.639271,-0.645233,-0.644105,-0.652806,-0.675363,-0.640238,-0.659090,-0.617358,-0.626704,-0.676652,-0.611236,-0.635888,-0.652645,-0.646200,-0.636210,-0.661184,-0.671979,-0.662795,-0.642172,-0.668113,-0.635565,-0.631537,-0.654739,-0.660056,-0.659090,-0.668274,-0.642494,-0.658606,-0.658445,-0.669563,-0.646361,-0.629926,-0.686320,-0.648616,-0.660701,-0.665696,-0.643461,-0.635082,-0.654578,-0.648616,-0.666340,-0.645555,-0.627026,-0.657639,-0.660540,-0.648939,-0.661990,-0.652645,-0.669563,-0.634921,-0.648133,-0.660379,-0.651194,-0.654417,-0.643461,-0.669724,-0.630571,-0.653128,-0.663279,-0.647328,-0.660056,-0.638788,-0.662795,-0.650711,-0.639755,-0.648455,-0.645394,-0.667468,-0.643944,-0.665373,-0.641849,-0.652806,-0.654417,-0.625254,-0.646039,-0.647650,-0.632987,-0.623320,-0.657317,-0.644266,-0.661184,-0.657156,-0.660217,-0.640883,-0.662473,-0.667468,-0.638466,-0.653934,-0.662473,-0.650067,-0.677135,-0.653611,-0.678586,-0.615264,-0.648294,-0.642655,-0.658445,-0.651194,-0.656350,-0.647972,-0.627831,-0.662312,-0.616069,-0.665696,-0.648616,-0.640721,-0.647489,-0.637016,-0.631537,-0.663762,-0.658123,-0.614942,-0.672785,-0.669724,-0.634599,-0.632504,-0.666501,-0.638466,-0.652483,-0.640399,-0.630409,-0.675202,-0.628959,-0.617358,-0.683419,-0.628637,-0.641849,-0.640238,-0.658123,-0.649744,-0.649744,-0.656189,-0.653934,-0.648294,-0.638949,-0.657962,-0.640399,-0.621709,-0.674396,-0.618003,-0.652645,-0.655223,-0.670690,-0.623159,-0.646039,-0.639594,-0.632826,-0.687931,-0.617520,-0.656834,-0.668274,-0.657156,-0.652806,-0.658928,-0.629765,-0.644911,-0.630248,-0.643299,-0.647650,-0.627187,-0.636210,-0.671335,-0.643783,-0.654417,-0.645555,-0.647811,-0.665373,-0.642494,-0.634438,-0.634115,-0.670852,-0.598024,-0.659895,-0.642655,-0.624287,-0.640560,-0.656028,-0.628959,-0.651194,-0.639432,-0.616714,-0.646522,-0.653450,-0.625254,-0.650228,-0.620259,-0.627348,-0.656995,-0.624448,-0.651194,-0.672624,-0.627509,-0.633793,-0.651678,-0.613814,-0.635565,-0.658123,-0.635888,-0.640238,-0.625254,-0.640399,-0.620742,-0.619131,-0.587389,-0.656028,-0.610752,-0.596412,-0.613653,-0.597862,-0.604469,-0.585939,-0.593512,-0.589162,-0.606241,-0.581589,-0.571116,-0.600118,-0.534218,-0.582556,-0.551781,-0.526484,-0.556131,-0.518751,-0.531963,-0.544369,-0.524068,-0.520362,-0.529868,-0.516656,-0.488137,-0.545980,-0.510211,-0.540180,-0.495226,-0.524229,-0.506988,-0.539536,-0.529385,-0.538730,-0.543241,-0.495388,-0.553714,-0.550331,-0.519717,-0.540502,-0.557420,-0.543564,-0.550009,-0.576111,-0.523423,-0.569988,-0.557581,-0.530996,-0.578528,-0.522618,-0.570149,-0.543725,-0.561932,-0.545819,-0.539374,-0.539697,-0.533091,-0.523101,-0.502960,-0.525518,-0.508761,-0.509405,-0.528740,-0.519234,-0.475892,-0.512628,-0.520040,-0.478470,-0.515367,-0.486042,-0.481047,-0.502960,-0.499093,-0.518589,-0.470897,-0.508116,-0.503605,-0.510855,-0.476536,-0.516011,-0.517784,-0.493132,-0.527451,-0.554842,-0.512306,-0.519073,-0.528740,-0.549203,-0.546947,-0.548720,-0.562576,-0.550492,-0.559515,-0.558226,-0.563865,-0.553231,-0.571116,-0.580944,-0.561287,-0.586745,-0.573049,-0.543564,-0.583200,-0.568860,-0.559998,-0.600118,-0.590290,-0.563865,-0.572244,-0.574177,-0.568377,-0.580300,-0.582072,-0.583522,-0.557098,-0.576916,-0.572566,-0.604952,-0.583684,-0.595929,-0.602052,-0.601407,-0.595768,-0.606885,-0.620420,-0.605274,-0.617520,-0.626059,-0.614458,-0.622676,-0.640399,-0.658284,-0.655867,-0.653128,-0.613169,-0.687770,-0.633149,-0.660540,-0.664407,-0.651678,-0.671335,-0.653772,-0.658445,-0.669724,-0.687286,-0.652967,-0.665535,-0.656028,-0.662473,-0.688414,-0.659734,-0.684869,-0.667468,-0.666501,-0.671013,-0.674396,-0.658123,-0.672141,-0.676974,-0.648133,-0.676169,-0.697759,-0.630571,-0.686481,-0.672141,-0.668435,-0.679875,-0.680519,-0.666824,-0.686320,-0.702915,-0.683419,-0.695181,-0.670368,-0.691798,-0.675685,-0.675041,-0.676974,-0.691798,-0.670852,-0.679552,-0.695504,-0.655223,-0.647166,-0.696631,-0.627187,-0.670046,-0.672463,-0.651839,-0.658767,-0.676813,-0.643622,-0.635727,-0.666985,-0.636854,-0.633954,-0.667468,-0.633149,-0.680680,-0.618003,-0.674074,-0.679875,-0.651517,-0.647650,-0.675041,-0.667951,-0.624126,-0.669885,-0.649583,-0.641527,-0.672302,-0.640077,-0.674396,-0.646361,-0.655384,-0.678424,-0.683097,-0.675524,-0.700176,-0.676330,-0.661345,-0.678908,-0.676169,-0.679391,-0.681486,-0.697920,-0.696148,-0.693570,-0.702271,-0.721606,-0.699048,-0.674074,-0.676974,-0.677941,-0.682614,-0.698243,-0.688092,-0.665051,-0.670852,-0.669240,-0.643783,-0.639755,-0.639755,-0.579494,-0.616714,-0.589645,-0.587712,-0.577239,-0.534541,-0.524712,-0.515689,-0.523906,-0.475730,-0.482175,-0.468802,-0.423687,-0.437705,-0.379217,-0.367133,-0.342320,-0.311223,-0.267075,-0.240650,-0.200853,-0.158799,-0.137209,-0.081298,-0.086132,-0.018138,0.035033,0.078376,0.129774,0.176339,0.210981,0.257385,0.312973,0.329730,0.358732,0.433817,0.465075,0.521468,0.556433,0.590430,0.611215,0.635223,0.652141,0.674859,0.685816,0.699834,0.715141,0.721263,0.721908,0.724486,0.716913,0.698706,0.693550,0.657136,0.598808,0.590269,0.510029,0.445418,0.403042,0.328763,0.236117,0.168122,0.111890,0.029233,-0.046012,-0.102567,-0.158638,-0.274003,-0.329591,-0.380828,-0.459940,-0.532929,-0.563382,-0.652161,-0.710166,-0.743841,-0.772360,-0.815058,-0.833265,-0.862750,-0.888530,-0.890141,-0.925750,-0.932195,-0.938801,-0.949918,-0.960875,-0.970542,-0.973926,-0.988427,-0.978437,-0.994066,-0.986171,-0.962969,-0.965547,-0.943473,-0.929939,-0.912376,-0.888530,-0.881280,-0.844060,-0.843577,-0.816669,-0.805712,-0.778482,-0.795400,-0.720961,-0.731756,-0.734979,-0.702593,-0.669563,-0.706460,-0.662957,-0.619453,-0.653772,-0.613814,-0.630893,-0.618164,-0.609624,-0.615747,-0.586262,-0.586745,-0.581589,-0.605435,-0.607852,-0.604630,-0.572888,-0.592223,-0.569666,-0.578366,-0.594640,-0.574661,-0.565960,-0.589484,-0.598024,-0.589001,-0.589484,-0.615586,-0.590773,-0.613491,-0.594479,-0.603985,-0.595768,-0.620581,-0.618647,-0.596412,-0.628959,-0.632504,-0.643299,-0.586262,-0.615586,-0.622192,-0.619775,-0.642655,-0.621548,-0.595446,-0.614780,-0.646361,-0.626704,-0.627993,-0.661023,-0.607530,-0.637016,-0.645716,-0.624931,-0.624609,-0.648939,-0.637016,-0.642494,-0.611236,-0.661668,-0.649905,-0.612686,-0.623481,-0.631860,-0.617681,-0.613814,-0.645716,-0.632182,-0.620420,-0.647972,-0.624931,-0.609786,-0.636532,-0.580944,-0.611880,-0.620581,-0.609141,-0.593351,-0.593190,-0.598024,-0.620903,-0.598990,-0.584811,-0.594318,-0.598507,-0.610269,-0.632665,-0.577239,-0.609141,-0.614458,-0.593673,-0.581106,-0.624931,-0.608013,-0.580622,-0.603824,-0.598185,-0.577883,-0.610430,-0.593673,-0.593834,-0.592545,-0.594157,-0.597057,-0.578850,-0.566121,-0.605919,-0.599313,-0.569988,-0.592062,-0.596412,-0.595446,-0.567410,-0.584650,-0.570471,-0.599474,-0.585134,-0.610591,-0.590773,-0.561448,-0.605758,-0.580300,-0.555648,-0.565799,-0.572244,-0.575144,-0.573210,-0.571921,-0.544530,-0.601891,-0.589645,-0.526807,-0.587389,-0.554520,-0.556292,-0.562254,-0.561771,-0.549686,-0.581589,-0.561448,-0.545497,-0.547108,-0.540502,-0.567410,-0.561448,-0.554198,-0.548881,-0.557420,-0.554359,-0.536958,-0.557420,-0.534541,-0.553876,-0.543241,-0.526968,-0.516817,-0.516656,-0.549847,-0.526968,-0.502960,-0.537441,-0.540180,-0.529062,-0.520362,-0.542436,-0.462357,-0.538730,-0.535024,-0.529062,-0.512950,-0.500060,-0.499899,-0.510050,-0.519878,-0.498932,-0.485881,-0.499093,-0.506344,-0.533735,-0.486687,-0.525679,-0.501671,-0.498771,-0.501994,-0.497482,-0.463968,-0.509083,-0.514884,-0.491359,-0.516817,-0.503766,-0.491843,-0.475247,-0.496677,-0.484753,-0.468319,-0.494260,-0.481370,-0.477181,-0.485076,-0.443183,-0.483303,-0.484109,-0.463324,-0.499899,-0.448662,-0.457362,-0.480081,-0.459296,-0.462518,-0.470091,-0.453656,-0.444795,-0.482820,-0.419176,-0.446889,-0.466707,-0.446728,-0.460907,-0.467513,-0.432066,-0.428682,-0.499738,-0.440766,-0.431421,-0.449951,-0.435288,-0.449789,-0.446245,-0.427715,-0.429004,-0.437866,-0.433999,-0.444472,-0.444150,-0.421593,-0.412892,-0.444633,-0.423365,-0.412892,-0.390496,-0.399358,-0.411442,-0.425137,-0.391624,-0.428038,-0.392752,-0.403225,-0.399680,-0.371805,-0.398713,-0.410475,-0.401774,-0.387434,-0.403386,-0.409992,-0.396457,-0.399035,-0.375350,-0.408542,-0.388240,-0.381634,-0.376639,-0.376639,-0.352309,-0.404997,-0.369550,-0.353115,-0.406608,-0.348442,-0.356821,-0.376961,-0.387757,-0.393557,-0.369227,-0.335875,-0.351020,-0.375189,-0.356015,-0.350698,-0.358915,-0.342159,-0.370839,-0.340870,-0.378573,-0.349409,-0.349892,-0.339742,-0.363105,-0.356176,-0.360043,-0.380023,-0.352632,-0.333136,-0.369227,-0.360527,-0.372450,-0.331041,-0.339419,-0.307033,-0.345220,-0.347637,-0.380184,-0.320729,-0.342320,-0.338936,-0.348281,-0.339742,-0.345864,-0.353598,-0.276903,-0.344737,-0.353437,-0.350537,-0.378895,-0.331041,-0.330880,-0.366327,-0.300427,-0.356337,-0.330719,-0.327174,-0.317668,-0.338453,-0.321212,-0.330558,-0.356176,-0.303489,-0.339258,-0.308000,-0.319923,-0.364394,-0.358271,-0.334586,-0.333780,-0.342481,-0.349248,-0.361816,-0.330396,-0.340547,-0.332813,-0.307033,-0.342481,-0.345703,-0.306872,-0.326852,-0.330558,-0.324113,-0.309773,-0.359721,-0.317829,-0.359077,-0.346348,-0.353598,-0.329430,-0.314284,-0.318473,-0.329430,-0.317345,-0.325885,-0.379700,-0.304133,-0.319279,-0.345381,-0.308967,-0.336519,-0.334102,-0.318312,-0.316218,-0.346831,-0.341836,-0.341514,-0.344737,-0.348442,-0.337647,-0.334102,-0.324757,-0.363588,-0.343609,-0.321051,-0.388401,-0.341836,-0.349570,-0.392429,-0.340225,-0.339903,-0.363749,-0.369550,-0.371483,-0.378734,-0.385340,-0.387918,-0.387112,-0.386951,-0.386790,-0.420948,-0.379700,-0.404030,-0.413698,-0.430616,-0.429004,-0.408864,-0.413537,-0.434322,-0.429971,-0.435611,-0.466063,-0.420626,-0.452045,-0.471058,-0.465741,-0.466063,-0.459618,-0.476375,-0.466546,-0.496354,-0.478953,-0.493454,-0.514561,-0.484431,-0.517139,-0.512306,-0.514884,-0.531157,-0.547914,-0.521329,-0.535507,-0.559676,-0.566927,-0.573049,-0.512628,-0.572727,-0.564993,-0.559354,-0.588839,-0.577883,-0.569988,-0.592706,-0.608335,-0.585134,-0.614780,-0.645394,-0.593029,-0.632021,-0.606241,-0.639110,-0.633149,-0.649583,-0.629604,-0.641688,-0.638627,-0.650389,-0.660217,-0.661829,-0.650067,-0.677619,-0.676169,-0.688092,-0.674074,-0.676652,-0.679069,-0.702754,-0.646683,-0.702110,-0.712744,-0.676652,-0.701787,-0.688575,-0.700176,-0.694537,-0.701787,-0.689703,-0.680358,-0.672624,-0.693570,-0.725956,-0.688253,-0.727728,-0.721122,-0.692764,-0.717416,-0.705816,-0.734012,-0.723378,-0.729178,-0.716289,-0.713711,-0.747708,-0.719833,-0.740457,-0.717900,-0.726923,-0.748836,-0.719994,-0.721445,-0.718383,-0.742068,-0.706782,-0.743357,-0.722734,-0.729340,-0.746580,-0.729823,-0.719189,-0.738846,-0.740779,-0.746741,-0.738685,-0.715000,-0.730467,-0.749480,-0.729178,-0.755281,-0.720961,-0.743519,-0.724828,-0.754314,-0.739974,-0.738201,-0.725795,-0.727406,-0.756086,-0.720961,-0.731273,-0.720156,-0.741746,-0.737718,-0.717416,-0.727728,-0.742713,-0.730306,-0.720639,-0.742068,-0.735301,-0.726439,-0.741585,-0.734818,-0.718544,-0.732079,-0.732723,-0.712099,-0.731918,-0.717094,-0.702110,-0.722411,-0.713388,-0.716450,-0.690348,-0.717416,-0.709682,-0.708716,-0.708716,-0.702110,-0.717255,-0.686803,-0.708555,-0.705332,-0.655867,-0.719028,-0.689703,-0.702754,-0.697598,-0.682453,-0.700176,-0.709199,-0.697276,-0.675202,-0.704849,-0.698404,-0.703721,-0.695342,-0.710488,-0.692281,-0.693248,-0.686642,-0.710971,-0.683097,-0.663279,-0.693731,-0.681969,-0.685836,-0.699532,-0.668596,-0.686481,-0.675202,-0.694698,-0.675363,-0.695181,-0.668757,-0.673107,-0.706943,-0.665051,-0.712260,-0.639271,-0.686481,-0.677780,-0.655706,-0.698082,-0.687770,-0.693248,-0.677458,-0.697437,-0.689220,-0.680036,-0.705010,-0.679875,-0.663440,-0.684386,-0.690831,-0.652967,-0.662312,-0.661184,-0.675846,-0.674557,-0.664890,-0.683742,-0.669563,-0.637016,-0.619453,-0.677780,-0.645233,-0.656028,-0.670207,-0.657639,-0.676491,-0.674719,-0.658767,-0.666985,-0.659734,-0.673591,-0.674880,-0.652322,-0.667146,-0.669724,-0.663762,-0.640238,-0.692603,-0.646039,-0.665857,-0.695504,-0.688414,-0.656512,-0.674557,-0.641044,-0.682775,-0.642172,-0.656350,-0.676330,-0.671818,-0.648133,-0.655867,-0.641044,-0.674880,-0.649744,-0.659412,-0.641366,-0.658284,-0.631215,-0.673430,-0.665212,-0.659895,-0.631376,-0.654095,-0.661668,-0.648939,-0.635082,-0.659090,-0.658928,-0.684708,-0.652483,-0.651033,-0.672624,-0.631376,-0.691959,-0.647166,-0.637177,-0.660056,-0.645072,-0.655384,-0.662312,-0.636854,-0.660056,-0.681969,-0.639110,-0.647328,-0.677297,-0.661990,-0.633471,-0.657478,-0.658606,-0.651517,-0.647650,-0.655706,-0.644105,-0.676008,-0.663279,-0.675846,-0.637982,-0.657478,-0.661023,-0.652967,-0.625254,-0.667146,-0.651678,-0.654256,-0.666179,-0.649422,-0.618325,-0.684869,-0.609947,-0.673107,-0.635565,-0.662634,-0.632021,-0.632665,-0.632182,-0.640883,-0.656189,-0.630732,-0.668918,-0.650711,-0.639432,-0.666501,-0.672785,-0.636532,-0.640399,-0.639432,-0.642172,-0.675685,-0.652967,-0.651678,-0.668918,-0.663279,-0.637982,-0.656028,-0.643944,-0.640077,-0.656995,-0.635888,-0.649422,-0.659090,-0.642655,-0.669885,-0.658284,-0.651678,-0.648939,-0.666824,-0.646683,-0.644427,-0.654256,-0.645233,-0.668113,-0.663118,-0.637821,-0.671013,-0.654578,-0.680841,-0.633632,-0.642333,-0.636854,-0.682614,-0.661506,-0.668435,-0.649261,-0.626865,-0.693731,-0.664890,-0.650872,-0.649583,-0.677780,-0.643622,-0.661990,-0.659573,-0.646200,-0.674557,-0.657639,-0.649905,-0.660540,-0.641688,-0.642333,-0.663118,-0.655061,-0.636693,-0.644427,-0.641527,-0.642010,-0.681808,-0.616714,-0.655061,-0.649100,-0.660701,-0.655545,-0.657317,-0.677780,-0.673913,-0.648939,-0.657962,-0.673268,-0.661990,-0.676974,-0.662795,-0.651517,-0.661345,-0.665696,-0.659895,-0.636693,-0.667146,-0.662473,-0.650228,-0.682775,-0.654739,-0.652161,-0.675363,-0.647650,-0.639271,-0.665212,-0.671657,-0.660217,-0.670368,-0.631698,-0.670852,-0.663279,-0.641044,-0.681164,-0.637338,-0.662312,-0.658123,-0.665857,-0.652161,-0.678586,-0.666985,-0.668113,-0.669240,-0.630732,-0.649905,-0.653772,-0.654739,-0.650711,-0.659251,-0.642010,-0.643138,-0.647650,-0.634921,-0.658284,-0.623803,-0.626059,-0.660217,-0.629926,-0.637982,-0.622837,-0.662312,-0.620581,-0.665696,-0.626381,-0.630893,-0.675846,-0.649905,-0.634921,-0.650067,-0.668435,-0.636532,-0.670368,-0.634760,-0.638466,-0.656512,-0.642494,-0.656028,-0.672785,-0.665535,-0.665857,-0.621225,-0.657478,-0.658928,-0.644911,-0.647972,-0.652967,-0.641366,-0.625415,-0.660540,-0.622353,-0.638788,-0.673107,-0.640399,-0.627026,-0.644427,-0.642977,-0.634438,-0.655384,-0.631054,-0.642172,-0.656995,-0.643138,-0.640721,-0.623320,-0.639916,-0.652000,-0.617681,-0.611880,-0.660379,-0.647650,-0.621870,-0.655223,-0.631860,-0.616714,-0.649583,-0.627509,-0.643783,-0.630409,-0.666018,-0.643783,-0.639432,-0.628637,-0.629443,-0.661990,-0.625092,-0.641205,-0.651033,-0.625737,-0.662151,-0.659734,-0.624770,-0.661345,-0.636371,-0.637499,-0.669240,-0.626220,-0.642172,-0.649100,-0.633471,-0.609947,-0.623642,-0.614136,-0.632343,-0.662473,-0.625737,-0.639110,-0.635243,-0.623159,-0.630409,-0.600763,-0.631537,-0.617520,-0.653289,-0.584489,-0.628637,-0.630409,-0.602374,-0.638305,-0.596412,-0.613008,-0.592062,-0.593673,-0.614136,-0.585778,-0.597218,-0.605919,-0.615425,-0.580461,-0.584489,-0.580783,-0.560159,-0.589967,-0.588517,-0.565477,-0.560965,-0.578850,-0.560643,-0.579011,-0.530190,-0.560159,-0.555487,-0.520201,-0.546142,-0.509728,-0.524712,-0.551781,-0.532929,-0.537119,-0.539374,-0.555487,-0.512628,-0.539213,-0.561771,-0.503444,-0.557581,-0.536796,-0.548075,-0.542275,-0.567893,-0.555487,-0.568377,-0.535024,-0.541791,-0.592062,-0.563382,-0.570794,-0.585456,-0.556937,-0.560804,-0.564993,-0.569505,-0.581750,-0.540502,-0.545175,-0.585617,-0.545336,-0.536313,-0.561448,-0.510855,-0.524068,-0.538247,-0.541469,-0.518751,-0.523423,-0.502799,-0.505699,-0.525679,-0.477503,-0.513917,-0.517139,-0.501994,-0.524068,-0.485076,-0.505216,-0.515367,-0.522940,-0.491521,-0.516495,-0.514561,-0.515045,-0.532124,-0.528901,-0.523262,-0.527935,-0.539374,-0.545658,-0.522940,-0.513433,-0.513756,-0.540180,-0.524068,-0.566121,-0.546303,-0.533091,-0.541630,-0.596896,-0.558709,-0.578366,-0.560804,-0.536474,-0.606241,-0.590451,-0.562737,-0.592384,-0.555165,-0.591256,-0.570149,-0.605435,-0.565154,-0.574016,-0.586584,-0.567893,-0.604146,-0.549364,-0.598346,-0.600118,-0.582878,-0.595929,-0.599635,-0.581267,-0.605758,-0.608658,-0.592545,-0.612364,-0.625737,-0.604469,-0.637016,-0.614780,-0.621709,-0.652806,-0.632182,-0.632504,-0.659251,-0.642816,-0.649261,-0.668113,-0.618809,-0.677780,-0.640399,-0.664729,-0.656350,-0.646361,-0.655545,-0.685514,-0.668274,-0.683580,-0.658767,-0.662634,-0.660862,-0.695826,-0.645233,-0.650711,-0.683580,-0.642816,-0.656834,-0.661506,-0.659090,-0.656995,-0.680680,-0.645233,-0.664890,-0.633149,-0.651356,-0.668113,-0.661023,-0.652645,-0.697115,-0.645877,-0.673430,-0.654256,-0.677941,-0.667468,-0.673430,-0.631215,-0.657478,-0.665535,-0.673107,-0.671174,-0.677458,-0.645394,-0.633149,-0.661023,-0.646200,-0.674235,-0.648939,-0.659895,-0.655545,-0.669401,-0.637016,-0.653934,-0.669563,-0.646683,-0.642010,-0.658123,-0.647972,-0.680036,-0.631537,-0.655384,-0.660701,-0.643622,-0.642172,-0.656834,-0.654095,-0.617681,-0.682614,-0.667468,-0.647811,-0.637177,-0.654900,-0.656673,-0.676652,-0.654578,-0.658445,-0.652967,-0.668757,-0.700660,-0.668757,-0.657156,-0.698404,-0.676169,-0.689220,-0.684869,-0.679713,-0.685031,-0.706943,-0.691475,-0.705977,-0.707588,-0.667790,-0.689059,-0.699209,-0.677619,-0.685675,-0.695826,-0.689864,-0.684386,-0.685031,-0.658123,-0.654739,-0.655061,-0.603663,-0.626381,-0.615747,-0.606563,-0.598024,-0.582556,-0.581267,-0.559354,-0.508439,-0.532285,-0.532285,-0.474925,-0.490070,-0.458168,-0.453495,-0.442700,-0.415309,-0.372128,-0.362138,-0.331202,-0.309773,-0.287699,-0.260791,-0.221799,-0.211648,-0.136564,-0.113201,-0.092416,-0.048751,0.043251,0.045345,0.113018,0.154104,0.179401,0.242562,0.285260,0.307817,0.375006,0.413998,0.447673,0.495688,0.507934,0.561750,0.582696,0.616693,0.637478,0.660358,0.676632,0.689522,0.710146,0.713691,0.722714,0.729964,0.726258,0.719652,0.714174,0.672765,0.665353,0.623138,0.589785,0.551760,0.473937,0.422699,0.338431,0.274464,0.219521,0.118335,0.028105,-0.015399,-0.066636,-0.165244,-0.236944,-0.320407,-0.354082,-0.410475,-0.474280,-0.577400,-0.599313,-0.664568,-0.723700,-0.738846,-0.794756,-0.825692,-0.847282,-0.862106,-0.879185,-0.890141,-0.914310,-0.926716,-0.935095,-0.949757,-0.955235,-0.937673,-0.967803,-0.946212,-0.957652,-0.949435,-0.936223,-0.916405,-0.911893,-0.905609,-0.862750,-0.878218,-0.835198,-0.848732,-0.809740,-0.811835,-0.780255,-0.765109,-0.739168,-0.759470,-0.706621,-0.701304,-0.701304,-0.701465,-0.658606,-0.643461,-0.665373,-0.654417,-0.642655,-0.640883,-0.598829,-0.623642,-0.589484,-0.636854,-0.638949,-0.591579,-0.586906,-0.612364,-0.589001,-0.600924,-0.586906,-0.589323,-0.590290,-0.594157,-0.583522,-0.627831,-0.592706,-0.586906,-0.608658,-0.612525,-0.610752,-0.634115,-0.583361,-0.602857,-0.608497,-0.608819,-0.607208,-0.634599,-0.610591,-0.578366,-0.611236,-0.594801,-0.621064,-0.582878,-0.603824,-0.590451,-0.584973,-0.600602,-0.621225,-0.638305,-0.598346,-0.651517,-0.611719,-0.630732,-0.631054,-0.630087,-0.594962,-0.646039,-0.634599,-0.616714,-0.643944,-0.648939,-0.612364,-0.640399,-0.620742,-0.621548,-0.639594,-0.640883,-0.615264,-0.629443,-0.614942,-0.637660,-0.662473,-0.606402,-0.615586,-0.606241,-0.642172,-0.647650,-0.623803,-0.607208,-0.651194,-0.624931,-0.603018,-0.633632,-0.583361,-0.596896,-0.623803,-0.622676,-0.620903,-0.597862,-0.641849,-0.597057,-0.637016,-0.600440,-0.610752,-0.631860,-0.580300,-0.605435,-0.592706,-0.592706,-0.601407,-0.604307,-0.589967,-0.607369,-0.601246,-0.605758,-0.626543,-0.615586,-0.596412,-0.602213,-0.598990,-0.583200,-0.595446,-0.583684,-0.560643,-0.584167,-0.594157,-0.567088,-0.599957,-0.541469,-0.598185,-0.584973,-0.570632,-0.585617,-0.586584,-0.561448,-0.578205,-0.571921,-0.552748,-0.595284,-0.554198,-0.545336,-0.597862,-0.573855,-0.596412,-0.563704,-0.567571,-0.545175,-0.557743,-0.569021,-0.563221,-0.567088,-0.558709,-0.552748,-0.567088,-0.543725,-0.538085,-0.543725,-0.539858,-0.541469,-0.560804,-0.550009,-0.527773,-0.560965,-0.513756,-0.545497,-0.537441,-0.537280,-0.544853,-0.546947,-0.517784,-0.561126,-0.532929,-0.556131,-0.532929,-0.521973,-0.539374,-0.520201,-0.517462,-0.545014,-0.516495,-0.522779,-0.504088,-0.547914,-0.520201,-0.525034,-0.548397,-0.496999,-0.514078,-0.500060,-0.523262,-0.506344,-0.521329,-0.505538,-0.498932,-0.527290,-0.512467,-0.513756,-0.510855,-0.502638,-0.523262,-0.492971,-0.489587,-0.535346,-0.485720,-0.507633,-0.503121,-0.446245,-0.497160,-0.503444,-0.470574,-0.470091,-0.488137,-0.478147,-0.479436,-0.493454,-0.486042,-0.477664,-0.482336,-0.459618,-0.499738,-0.488459,-0.463324,-0.482820,-0.471541,-0.492326,-0.467352,-0.458812,-0.459296,-0.462035,-0.456718,-0.466546,-0.466707,-0.432549,-0.477664,-0.484753,-0.427393,-0.494099,-0.470252,-0.438511,-0.469608,-0.446245,-0.447695,-0.453173,-0.468319,-0.430938,-0.464291,-0.448017,-0.451562,-0.454623,-0.441089,-0.445922,-0.426426,-0.440122,-0.421109,-0.449951,-0.385501,-0.420626,-0.424493,-0.408219,-0.454140,-0.428521,-0.408542,-0.401936,-0.420465,-0.398391,-0.396296,-0.418048,-0.400163,-0.410959,-0.379862,-0.434805,-0.423687,-0.378734,-0.397263,-0.388723,-0.382440,-0.390496,-0.409508,-0.387112,-0.360204,-0.395007,-0.405964,-0.404191,-0.383890,-0.377606,-0.388401,-0.389529,-0.399035,-0.426749,-0.366327,-0.361816,-0.395007,-0.355532,-0.377767,-0.375511,-0.402902,-0.354565,-0.397102,-0.369389,-0.370033,-0.399841,-0.329752,-0.373094,-0.368422,-0.352148,-0.415309,-0.385340,-0.373417,-0.405803,-0.354404,-0.356337,-0.386951,-0.352148,-0.365844,-0.370839,-0.349892,-0.377445,-0.356660,-0.358754,-0.341836,-0.364716,-0.366972,-0.347798,-0.396457,-0.332330,-0.369066,-0.358432,-0.353437,-0.342803,-0.367455,-0.373739,-0.371322,-0.362782,-0.351987,-0.370516,-0.363266,-0.368905,-0.387112,-0.347637,-0.366327,-0.369550,-0.361816,-0.359399,-0.339258,-0.353276,-0.346187,-0.369711,-0.313962,-0.347153,-0.358110,-0.329913,-0.369227,-0.342320,-0.323790,-0.344092,-0.345220,-0.335552,-0.376156,-0.342320,-0.316379,-0.359882,-0.341192,-0.329913,-0.339581,-0.359238,-0.322501,-0.329107,-0.336841,-0.314767,-0.383890,-0.346348,-0.340870,-0.348603,-0.334908,-0.366166,-0.344898,-0.339419,-0.327496,-0.352470,-0.327174,-0.338775,-0.369227,-0.324596,-0.349248,-0.377122,-0.344898,-0.347153,-0.356015,-0.351826,-0.358593,-0.373417,-0.364716,-0.364555,-0.364233,-0.366488,-0.364555,-0.370194,-0.378089,-0.362782,-0.381151,-0.395168,-0.401130,-0.371322,-0.385179,-0.422559,-0.379217,-0.414503,-0.418209,-0.407092,-0.419176,-0.434805,-0.406447,-0.406125,-0.441411,-0.448339,-0.454140,-0.434644,-0.444311,-0.451723,-0.436094,-0.495710,-0.457685,-0.454945,-0.470574,-0.488781,-0.463324,-0.504894,-0.472991,-0.486365,-0.502155,-0.505216,-0.529546,-0.499738,-0.496999,-0.494743,-0.534702,-0.540663,-0.546947,-0.553553,-0.524873,-0.554681,-0.544208,-0.540986,-0.565477,-0.591256,-0.555165,-0.579978,-0.566604,-0.562415,-0.583522,-0.612364,-0.553876,-0.590773,-0.605758,-0.647650,-0.612686,-0.599957,-0.612364,-0.605113,-0.610591,-0.618486,-0.644266,-0.626381,-0.605435,-0.645555,-0.629120,-0.653289,-0.661829,-0.655061,-0.668435,-0.657801,-0.640721,-0.674235,-0.646683,-0.658928,-0.683903,-0.661506,-0.675202,-0.672141,-0.673430,-0.654739,-0.677297,-0.681808,-0.651356,-0.704527,-0.654739,-0.699854,-0.705654,-0.682291,-0.718222,-0.692603,-0.689864,-0.691153,-0.700176,-0.681486,-0.710488,-0.724506,-0.703238,-0.723378,-0.701787,-0.697920,-0.725150,-0.722250,-0.719672,-0.729340,-0.718222,-0.709682,-0.748836,-0.705977,-0.730951,-0.692120,-0.738846,-0.721767,-0.722572,-0.720961,-0.720156,-0.744324,-0.697115,-0.743519,-0.715483,-0.693731,-0.751414,-0.699209,-0.706138,-0.714355,-0.732079,-0.722250,-0.729178,-0.727245,-0.726601,-0.727406,-0.735140,-0.712260,-0.721283,-0.739490,-0.725795,-0.739168,-0.721283,-0.738040,-0.753186,-0.701626,-0.735623,-0.743357,-0.703238,-0.740618,-0.732562,-0.719028,-0.736268,-0.734657,-0.712583,-0.724989,-0.745613,-0.697598,-0.745291,-0.685675,-0.722411,-0.744485,-0.718061,-0.727567,-0.694859,-0.727890,-0.716772,-0.702754,-0.719350,-0.707266,-0.697759,-0.718222,-0.702271,-0.701949,-0.710166,-0.714838,-0.696631,-0.696954,-0.728856,-0.704688,-0.699532,-0.731595,-0.700015,-0.711294,-0.698726,-0.722572,-0.709682,-0.704688,-0.676330,-0.712260,-0.704527,-0.685192,-0.714355,-0.708877,-0.700015,-0.724506,-0.678747,-0.696631,-0.700337,-0.699048,-0.696309,-0.703882,-0.681325,-0.646522,-0.718867,-0.676008,-0.682291,-0.679713,-0.659412,-0.680036,-0.690831,-0.666662,-0.668113,-0.691798,-0.687447,-0.691314,-0.671979,-0.681325,-0.671013,-0.669885,-0.683258,-0.685836,-0.673752,-0.670852,-0.676974,-0.660379,-0.653450,-0.684547,-0.614780,-0.672463,-0.668274,-0.676491,-0.663440,-0.665857,-0.666662,-0.673268,-0.669724,-0.647972,-0.676330,-0.671979,-0.647328,-0.676491,-0.660217,-0.662473,-0.707910,-0.675041,-0.655223,-0.668435,-0.663118,-0.673430,-0.716127,-0.665373,-0.676169,-0.674235,-0.679391,-0.646039,-0.667790,-0.655545,-0.695020,-0.632182,-0.698887,-0.669724,-0.646039,-0.671335,-0.670852,-0.640721,-0.661829,-0.657478,-0.649583,-0.635404,-0.667468,-0.652322,-0.647972,-0.670368,-0.645716,-0.669724,-0.639432,-0.647811,-0.662312,-0.636371,-0.633793,-0.661506,-0.629443,-0.633310,-0.664407,-0.643461,-0.614297,-0.641849,-0.613814,-0.657478,-0.658445,-0.637660,-0.630571,-0.674557,-0.637821,-0.642655,-0.659412,-0.642816,-0.643461,-0.621709,-0.644105,-0.645877,-0.641366,-0.636049,-0.653128,-0.642333,-0.634115,-0.645555,-0.641527,-0.651678,-0.663279,-0.635082,-0.647489,-0.634115,-0.636210,-0.646039,-0.633471,-0.639271,-0.645716,-0.655223,-0.628315,-0.666179,-0.623159,-0.655061,-0.647972,-0.634760,-0.619614,-0.642333,-0.629120,-0.635243,-0.655706,-0.635243,-0.622837,-0.648939,-0.637016,-0.626543,-0.633954,-0.654578,-0.641527,-0.646039,-0.644588,-0.651194,-0.678102,-0.635727,-0.665857,-0.645716,-0.657801,-0.672141,-0.665857,-0.644266,-0.679230,-0.653934,-0.660056,-0.682291,-0.652645,-0.642172,-0.683097,-0.635404,-0.637499,-0.674074,-0.661506,-0.620259,-0.665051,-0.652967,-0.642816,-0.668596,-0.631537,-0.660862,-0.645072,-0.644911,-0.643299,-0.661506,-0.666662,-0.667468,-0.647650,-0.660540,-0.665051,-0.631376,-0.652161,-0.677297,-0.632504,-0.650711,-0.656512,-0.648133,-0.646683,-0.636854,-0.656189,-0.656512,-0.662312,-0.620581,-0.652322,-0.661345,-0.659895,-0.639916,-0.649583,-0.661023,-0.679552,-0.673913,-0.653289,-0.664084,-0.651839,-0.651194,-0.686642,-0.634599,-0.667629,-0.677780,-0.673752,-0.650872,-0.673913,-0.630571,-0.637660,-0.661990,-0.663923,-0.640077,-0.645394,-0.665696,-0.670046,-0.656350,-0.668435,-0.676330,-0.663923,-0.672463,-0.667951,-0.668596,-0.660701,-0.674719,-0.646683,-0.654900,-0.662634,-0.654739,-0.665535,-0.668918,-0.636532,-0.633632,-0.682291,-0.646200,-0.663923,-0.659251,-0.650872,-0.661345,-0.673430,-0.658123,-0.650389,-0.635727,-0.660217,-0.656673,-0.633793,-0.656834,-0.672463,-0.637499,-0.646522,-0.654417,-0.613814,-0.617842,-0.649744,-0.641205,-0.644105,-0.655706,-0.611075,-0.624770,-0.606724,-0.647005,-0.627993,-0.658445,-0.636210,-0.629926,-0.651033,-0.632021,-0.655706,-0.636854,-0.607691,-0.666340,-0.608980,-0.647650,-0.650067,-0.637177,-0.644588,-0.643944,-0.613491,-0.650711,-0.657478,-0.613330,-0.615425,-0.626059,-0.615908,-0.619775,-0.621064,-0.593512,-0.645716,-0.582556,-0.610108,-0.614942,-0.567732,-0.583039,-0.603018,-0.577239,-0.605274,-0.581589,-0.592223,-0.588356,-0.572566,-0.574983,-0.585295,-0.583845,-0.574177,-0.622514,-0.547753,-0.570794,-0.570955,-0.574822,-0.591095,-0.559354,-0.558709,-0.577722,-0.594962,-0.573372,-0.579011,-0.604146,-0.591740,-0.589162,-0.593673,-0.596412,-0.577722,-0.596412,-0.592545,-0.618970,-0.596735,-0.585134,-0.602052,-0.577722,-0.585778,-0.589001,-0.577561,-0.572083,-0.580139,-0.601891,-0.574983,-0.569988,-0.580139,-0.544853,-0.586423,-0.536313,-0.582717,-0.524551,-0.535346,-0.543886,-0.556615,-0.545658,-0.559676,-0.565638,-0.499577,-0.537763,-0.543725,-0.532446,-0.530513,-0.549364,-0.533574,-0.549686,-0.571277,-0.541630,-0.545175,-0.533413,-0.542114,-0.569827,-0.529868,-0.555003,-0.579817,-0.544530,-0.600118,-0.571438,-0.557904,-0.582072,-0.601568,-0.549203,-0.615103,-0.572888,-0.588356,-0.595446,-0.604630,-0.593673,-0.602374,-0.615425,-0.625092,-0.619936,-0.613330,-0.604307,-0.611397,-0.611075,-0.630732,-0.588839,-0.610591,-0.609302,-0.616392,-0.593995,-0.603824,-0.627187,-0.600602,-0.640560,-0.628959,-0.625254,-0.605596,-0.638788,-0.632021,-0.636693,-0.608013,-0.611880,-0.647650,-0.622514,-0.685031,-0.673752,-0.652000,-0.685675,-0.673107,-0.691959,-0.671818,-0.691475,-0.672785,-0.680519,-0.712744,-0.700015,-0.703560,-0.699209,-0.695020,-0.691959,-0.663440,-0.682936,-0.696148,-0.703882,-0.694376,-0.691475,-0.684064,-0.662957,-0.715805,-0.662634,-0.685836,-0.701143,-0.689703,-0.678908,-0.671496,-0.666824,-0.688897,-0.671496,-0.669079,-0.701304,-0.665212,-0.699532,-0.688897,-0.711616,-0.689059,-0.711938,-0.694859,-0.686320,-0.707588,-0.671979,-0.698404,-0.699854,-0.663440,-0.704688,-0.683580,-0.704849,-0.693409,-0.674880,-0.703721,-0.667629,-0.713388,-0.683097,-0.688253,-0.698404,-0.662957,-0.705977,-0.688736,-0.677780,-0.713227,-0.679230,-0.692442,-0.705171,-0.675524,-0.684225,-0.700337,-0.691959,-0.681486,-0.691475,-0.669885,-0.675363,-0.685514,-0.676330,-0.687609,-0.668274,-0.653611,-0.710166,-0.675041,-0.673107,-0.672785,-0.647489,-0.648939,-0.677297,-0.684064,-0.649261,-0.687931,-0.657156,-0.687125,-0.685353,-0.676652,-0.693731,-0.664407,-0.663279,-0.705171,-0.722572,-0.696470,-0.689542,-0.728373,-0.678424,-0.722411,-0.715000,-0.717578,-0.718705,-0.715483,-0.686642,-0.702110,-0.692281,-0.686481,-0.693248,-0.669563,-0.682775,-0.674719,-0.646844,-0.679713,-0.625092,-0.601729,-0.610591,-0.607530,-0.561287,-0.572244,-0.544691,-0.542114,-0.566604,-0.543241,-0.496515,-0.511983,-0.506344,-0.452045,-0.432710,-0.431260,-0.355532,-0.417081,-0.336358,-0.292049,-0.284637,-0.250157,-0.220832,-0.188124,-0.126091,-0.085327,-0.038117,-0.015721,0.021338,0.066775,0.100611,0.140248,0.195513,0.207920,0.284132,0.323446,0.370333,0.395630,0.490049,0.518246,0.521630,0.580118,0.599775,0.621527,0.649079,0.660519,0.673570,0.687105,0.709340,0.704829,0.714980,0.709662,0.706118,0.685010,0.661164,0.625233,0.591558,0.552727,0.493916,0.425116,0.351965,0.313134,0.238856,0.137186,0.124296,0.027622,-0.055841,-0.128508,-0.219382,-0.260791,-0.294949,-0.411281,-0.473152,-0.509405,-0.582072,-0.645072,-0.676652,-0.720156,-0.766882,-0.801040,-0.833748,-0.850505,-0.857917,-0.872257,-0.896909,-0.902226,-0.913665,-0.926233,-0.929133,-0.935578,-0.925266,-0.932195,-0.918821,-0.918338,-0.908348,-0.904804,-0.881280,-0.884502,-0.864845,-0.824886,-0.850021,-0.821341,-0.806840,-0.791211,-0.779771,-0.775260,-0.756570,-0.734012,-0.711133,-0.721445,-0.685836,-0.685836,-0.701787,-0.643944,-0.700498,-0.676974,-0.637016,-0.670690,-0.673591,-0.637982,-0.671657,-0.640560,-0.636532,-0.658284,-0.633954,-0.667468,-0.643783,-0.661829,-0.632665,-0.635404,-0.640238,-0.611075,-0.662634,-0.619292,-0.650389,-0.639271,-0.616392,-0.617842,-0.625092,-0.642977,-0.616231,-0.643944,-0.618970,-0.653289,-0.622192,-0.619936,-0.625415,-0.602696,-0.635565,-0.621870,-0.659734,-0.619292,-0.627187,-0.627026,-0.609302,-0.684064,-0.605758,-0.644266,-0.621225,-0.633149,-0.642977,-0.625576,-0.615908,-0.624609,-0.653128,-0.617036,-0.643299,-0.651678,-0.591417,-0.675363,-0.649583,-0.620259,-0.659895,-0.648616,-0.652967,-0.640721,-0.639110,-0.656834,-0.651678,-0.651033,-0.637821,-0.640399,-0.646200,-0.639432,-0.637338,-0.626220,-0.648133,-0.661829,-0.621709,-0.672302,-0.634760,-0.662795,-0.645555,-0.591901,-0.637338,-0.619453,-0.614458,-0.608980,-0.621709,-0.646844,-0.624931,-0.638949,-0.607530,-0.626381,-0.617036,-0.604469,-0.622837,-0.625737,-0.582233,-0.632665,-0.627187,-0.626543,-0.614136,-0.640883,-0.622031,-0.602052,-0.619453,-0.651678,-0.626543,-0.607369,-0.612202,-0.630248,-0.602374,-0.623965,-0.638788,-0.567732,-0.630409,-0.622031,-0.611719,-0.597540,-0.603180,-0.599313,-0.587550,-0.637660,-0.605435,-0.594318,-0.589806,-0.599151,-0.590934,-0.562737,-0.600763,-0.588195,-0.608013,-0.621870,-0.576433,-0.572888,-0.591095,-0.611397,-0.578044,-0.575305,-0.613653,-0.590934,-0.580783,-0.623803,-0.618809,-0.589001,-0.560482,-0.583684,-0.601407,-0.567249,-0.594962,-0.586423,-0.566765,-0.590773,-0.561126,-0.584006,-0.545336,-0.568699,-0.562093,-0.563382,-0.568054,-0.553553,-0.567088,-0.550492,-0.544530,-0.536313,-0.546464,-0.544853,-0.535024,-0.521651,-0.555326,-0.575144,-0.543725,-0.564349,-0.554842,-0.513272,-0.517784,-0.521006,-0.523423,-0.528096,-0.561610,-0.504410,-0.531640,-0.536635,-0.530835,-0.524712,-0.528257,-0.508922,-0.537280,-0.520362,-0.521812,-0.489909,-0.542114,-0.517784,-0.515528,-0.496838,-0.524068,-0.500221,-0.479920,-0.533574,-0.524068,-0.521812,-0.510533,-0.508761,-0.496677,-0.503927,-0.508277,-0.469124,-0.509244,-0.492004,-0.503283,-0.500382,-0.507472,-0.472991,-0.488137,-0.525840,-0.514884,-0.487331,-0.467030,-0.485076,-0.511339,-0.476858,-0.498610,-0.458168,-0.453334,-0.489909,-0.477019,-0.455751,-0.456879,-0.480725,-0.423365,-0.482498,-0.448500,-0.443667,-0.480725,-0.481692,-0.419981,-0.480081,-0.436738,-0.447050,-0.458329,-0.436094,-0.461068,-0.464129,-0.425621,-0.434160,-0.469285,-0.429971,-0.441894,-0.435449,-0.434322,-0.411925,-0.449951,-0.418048,-0.417242,-0.435611,-0.429488,-0.407575,-0.429327,-0.411764,-0.428038,-0.401613,-0.412731,-0.436900,-0.406769,-0.415792,-0.434966,-0.385662,-0.409992,-0.417565,-0.414826,-0.376156,-0.404030,-0.417081,-0.381634,-0.438027,-0.375672,-0.388723,-0.413375,-0.378250,-0.417565,-0.384212,-0.404997,-0.390657,-0.419337,-0.382278,-0.366972,-0.392590,-0.398552,-0.398230,-0.362782,-0.366327,-0.400485,-0.402097,-0.384856,-0.401130,-0.378895,-0.380989,-0.414826,-0.389529,-0.360204,-0.398069,-0.371483,-0.380989,-0.385984,-0.400969,-0.365199,-0.378089,-0.380345,-0.406286,-0.399358,-0.344575,-0.383890,-0.349409,-0.370033,-0.394524,-0.380989,-0.364877,-0.388723,-0.374544,-0.373900,-0.381634,-0.360527,-0.365844,-0.412570,-0.357626,-0.345864,-0.359238,-0.398230,-0.378089,-0.373739,-0.373578,-0.355532,-0.380506,-0.386790,-0.400324,-0.364071,-0.376639,-0.365038,-0.386790,-0.371322,-0.380989,-0.354726,-0.374867,-0.403386,-0.358754,-0.375995,-0.386307,-0.375350,-0.367616,-0.362621,-0.351826,-0.355210,-0.387918,-0.360688,-0.340547,-0.404997,-0.348120,-0.376961,-0.370033,-0.384856,-0.389690,-0.377928,-0.385179,-0.372450,-0.392590,-0.375350,-0.387918,-0.392268,-0.388885,-0.398230,-0.373255,-0.397102,-0.392268,-0.371483,-0.385018,-0.412892,-0.391624,-0.405803,-0.429649,-0.363266,-0.431421,-0.407414,-0.409992,-0.413698,-0.438994,-0.421754,-0.441572,-0.424654,-0.413859,-0.423848,-0.448178,-0.457523,-0.430293,-0.425137,-0.468480,-0.446245,-0.453334,-0.443183,-0.457362,-0.414181,-0.460101,-0.488943,-0.438833,-0.510533,-0.500060,-0.467030,-0.482498,-0.505216,-0.477019,-0.506505,-0.501671,-0.501349,-0.525679,-0.516978,-0.523423,-0.536152,-0.523101,-0.554520,-0.554520,-0.521167,-0.548720,-0.540180,-0.530029,-0.548236,-0.527935,-0.545014,-0.579817,-0.553392,-0.568860,-0.569666,-0.590451,-0.597379,-0.594640,-0.594962,-0.592545,-0.622676,-0.579817,-0.611558,-0.623159,-0.620903,-0.623965,-0.618647,-0.617681,-0.626704,-0.630087,-0.638143,-0.625898,-0.651194,-0.622837,-0.649583,-0.638466,-0.651356,-0.650067,-0.663601,-0.673591,-0.652806,-0.666662,-0.648616,-0.691959,-0.687286,-0.674235,-0.682291,-0.673752,-0.704043,-0.685675,-0.681647,-0.684386,-0.698726,-0.684386,-0.702915,-0.716933,-0.683742,-0.733851,-0.711133,-0.708232,-0.720156,-0.743035,-0.735623,-0.725634,-0.722734,-0.737396,-0.742068,-0.730790,-0.709199,-0.754958,-0.731918,-0.716289,-0.738685,-0.727084,-0.721122,-0.732079,-0.721445,-0.712260,-0.745130,-0.711777,-0.731595,-0.752864,-0.742552,-0.747063,-0.747869,-0.750447,-0.737557,-0.720800,-0.751897,-0.730951,-0.761242,-0.753025,-0.758664,-0.741102,-0.750769,-0.748997,-0.750125,-0.747063,-0.765109,-0.729984,-0.734496,-0.754475,-0.733207,-0.770265,-0.745130,-0.761726,-0.763820,-0.744324,-0.729984,-0.751736,-0.752864,-0.738846,-0.769137,-0.740618,-0.721283,-0.743357,-0.734979,-0.746741,-0.746419,-0.737235,-0.725795,-0.750125,-0.755764,-0.739813,-0.767043,-0.744324,-0.734012,-0.733207,-0.724345,-0.739813,-0.734496,-0.731918,-0.721283,-0.744646,-0.756570,-0.755442,-0.724345,-0.742391,-0.725312,-0.728856,-0.724828,-0.729501,-0.726601,-0.735785,-0.712583,-0.719672,-0.713066,-0.747708,-0.684547,-0.740135,-0.739007,-0.715000,-0.737879,-0.723378,-0.709682,-0.719672,-0.721283,-0.714677,-0.724989,-0.737718,-0.700821,-0.723378,-0.710166,-0.710005,-0.706138,-0.719672,-0.703399,-0.722089,-0.698887,-0.689542,-0.721122,-0.683258,-0.702432,-0.715322,-0.679875,-0.713711,-0.698887,-0.713549,-0.704527,-0.712744,-0.710971,-0.710005,-0.725150,-0.679069,-0.714355,-0.702110,-0.725634,-0.711938,-0.724184,-0.682775,-0.721122,-0.652000,-0.717900,-0.728373,-0.674880,-0.694215,-0.705010,-0.686158,-0.712099,-0.698404,-0.680197,-0.690509,-0.695665,-0.686481,-0.685836,-0.724989,-0.678102,-0.716289,-0.684064,-0.681486,-0.665373,-0.709360,-0.672141,-0.676491,-0.672624,-0.686158,-0.683580,-0.656834,-0.684386,-0.682453,-0.663601,-0.645072,-0.674557,-0.635082,-0.681808,-0.672785,-0.656350,-0.679391,-0.690831,-0.649905,-0.689220,-0.674719,-0.657478,-0.666018,-0.671818,-0.675524,-0.691475,-0.703721,-0.683903,-0.674557,-0.661345,-0.667629,-0.691959,-0.676813,-0.680358,-0.646683,-0.677619,-0.682130,-0.685997,-0.672785,-0.666662,-0.701465,-0.631376,-0.704204,-0.676008,-0.674235,-0.686964,-0.686158,-0.670368,-0.669079,-0.683903,-0.663440,-0.683258,-0.674557,-0.651194,-0.680519,-0.656350,-0.677135,-0.658123,-0.678908,-0.675846,-0.653128,-0.635243,-0.646361,-0.654900,-0.654256,-0.647489,-0.651678,-0.641366,-0.664568,-0.642494,-0.652322,-0.671496,-0.663118,-0.651678,-0.660862,-0.656673,-0.678424,-0.672463,-0.640399,-0.650711,-0.642655,-0.672624,-0.648939,-0.655545,-0.651356,-0.654900,-0.668918,-0.662795,-0.659090,-0.653934,-0.639755,-0.670852,-0.667629,-0.653611,-0.666179,-0.670852,-0.657801,-0.669885,-0.657156,-0.658928,-0.678424,-0.671496,-0.653128,-0.667629,-0.663279,-0.678263,-0.676652,-0.661023,-0.662795,-0.689220,-0.680519,-0.680358,-0.659573,-0.659895,-0.681486,-0.649422,-0.661184,-0.653772,-0.670529,-0.652161,-0.663601,-0.664246,-0.660862,-0.696954,-0.653450,-0.655223,-0.668274,-0.667951,-0.656028,-0.650228,-0.666179,-0.677458,-0.678102,-0.662473,-0.642977,-0.674880,-0.648294,-0.659251,-0.661506,-0.654095,-0.653289,-0.668918,-0.666018,-0.650389,-0.627187,-0.672624,-0.679713,-0.634438,-0.679713,-0.674396,-0.670529,-0.659573,-0.677941,-0.678263,-0.624448,-0.676491,-0.649422,-0.630248,-0.667307,-0.646361,-0.640560,-0.673430,-0.661506,-0.632826,-0.649261,-0.660862,-0.656350,-0.674719,-0.652000,-0.677135,-0.644266,-0.649100,-0.649583,-0.670852,-0.666179,-0.676974,-0.661184,-0.694698,-0.677458,-0.685997,-0.670046,-0.665857,-0.685997,-0.699532,-0.680841,-0.694537,-0.673268,-0.696631,-0.655545,-0.691314,-0.709521,-0.640883,-0.679391,-0.680680,-0.672946,-0.663923,-0.654739,-0.642172,-0.662312,-0.646361,-0.646200,-0.647489,-0.633471,-0.628476,-0.663762,-0.639432,-0.640721,-0.673591,-0.622353,-0.617681,-0.646683,-0.621225,-0.603018,-0.634760,-0.607208,-0.627026,-0.621064,-0.605596,-0.617358,-0.620581,-0.584006,-0.602374,-0.584489,-0.586100,-0.622031,-0.600279,-0.589323,-0.596412,-0.588839,-0.622837,-0.594962,-0.578528,-0.579011,-0.598507,-0.561287,-0.581750,-0.610913,-0.572083,-0.612847,-0.599151,-0.592062,-0.596735,-0.604791,-0.601246,-0.630571,-0.610752,-0.605274,-0.641849,-0.585295,-0.619614,-0.610108,-0.622837,-0.613975,-0.618970,-0.624770,-0.615264,-0.604146,-0.598507,-0.609624,-0.629120,-0.593673,-0.616069,-0.587389,-0.599796,-0.602696,-0.576916,-0.583200,-0.589484,-0.570794,-0.534218,-0.584006,-0.566927,-0.542114,-0.587067,-0.549525,-0.543403,-0.562899,-0.533896,-0.546464,-0.570310,-0.551459,-0.529385,-0.579978,-0.508922,-0.551942,-0.541630,-0.582233,-0.566604,-0.582878,-0.551298,-0.577561,-0.575788,-0.571438,-0.606885,-0.579011,-0.587712,-0.634276,-0.605435,-0.607369,-0.610591,-0.608497,-0.609786,-0.610752,-0.626381,-0.625092,-0.631054,-0.602374,-0.656673,-0.638305,-0.609624,-0.667951,-0.618003,-0.651356,-0.655867,-0.623481,-0.656512,-0.664729,-0.610269,-0.634921,-0.631537,-0.644588,-0.640560,-0.643138,-0.639110,-0.613975,-0.633310,-0.650067,-0.622192,-0.637982,-0.612202,-0.655384,-0.627831,-0.677135,-0.660540,-0.645716,-0.653450,-0.664890,-0.667951,-0.676491,-0.682130,-0.669885,-0.681486,-0.702915,-0.676652,-0.717900,-0.675846,-0.678424,-0.712744,-0.712905,-0.683097,-0.695826,-0.725150,-0.704043,-0.732079,-0.712905,-0.710005,-0.721606,-0.725956,-0.706782,-0.725312,-0.691475,-0.718705,-0.734979,-0.676974,-0.698726,-0.720478,-0.699371,-0.696470,-0.701304,-0.719028,-0.680197,-0.726923,-0.719028,-0.707266,-0.709844,-0.731595,-0.712260,-0.716127,-0.709682,-0.737718,-0.701304,-0.704688,-0.722411,-0.702593,-0.722250,-0.726117,-0.701304,-0.701626,-0.720639,-0.685836,-0.705171,-0.721606,-0.704365,-0.710327,-0.721445,-0.707427,-0.705493,-0.739007,-0.698404,-0.712099,-0.705010,-0.704849,-0.697437,-0.721767,-0.689703,-0.717255,-0.711777,-0.685353,-0.713388,-0.695987,-0.684225,-0.682775,-0.696309,-0.704688,-0.673107,-0.699209,