-0.376156,-0.382601,-0.433194,-0.38679,-0.387434,-0.415792,-0.380828,-0.384373,-0.399519,-0.395329,-0.406286,-0.403708,-0.354243,-0.421432,-0.389046,-0.387434,-0.409347,-0.350859,-0.369066,-0.389529,-0.378734,-0.374383,-0.381151,-0.348926,-0.341514,-0.359077,-0.359721,-0.366811,-0.364071,-0.353115,-0.342159,-0.368261,-0.337486,-0.350859,-0.360849,-0.326207,-0.374061,-0.369872,-0.341192,-0.361171,-0.317668,-0.327013,-0.357465,-0.335391,-0.335391,-0.341353,-0.340547,-0.334747,-0.329269,-0.334908,-0.331847,-0.328302,-0.339903,-0.307195,-0.322985,-0.326691,-0.348603,-0.325563,-0.336197,-0.356499,-0.33233,-0.336358,-0.337808,-0.346509,-0.326691,-0.328624,-0.345381,-0.333619,-0.312834,-0.329107,-0.346026,-0.316056,-0.333619,-0.344092,-0.333136,-0.302361,-0.34957,-0.281898,-0.348765,-0.343931,-0.324918,-0.35102,-0.334263,-0.33813,-0.343609,-0.320568,-0.353437,-0.356821,-0.344575,-0.345703,-0.35247,-0.338775,-0.36955,-0.363588,-0.351504,-0.370194,-0.335552,-0.354565,-0.353598,-0.359882,-0.3797,-0.405158,-0.343125,-0.369389,-0.364071,-0.335069,-0.36101,-0.36955,-0.37245,-0.36391,-0.352148,-0.384695,-0.370677,-0.374383,-0.380989,-0.344092,-0.389368,-0.361332,-0.391624,-0.405964,-0.383084,-0.388401,-0.425299,-0.396457,-0.407575,-0.40967,-0.415792,-0.417726,-0.389207,-0.407736,-0.39404,-0.424654,-0.429971,-0.393235,-0.413053,-0.436577,-0.396941,-0.419015,-0.446406,-0.399358,-0.433677,-0.427877,-0.405158,-0.426426,-0.430293,-0.425137,-0.438027,-0.469447,-0.435772,-0.470736,-0.4369,-0.424976,-0.454301,-0.461713,-0.440605,-0.466063,-0.42401,-0.463807,-0.496677,-0.433838,-0.458007,-0.463968,-0.433999,-0.483948,-0.425943,-0.479275,-0.424332,-0.451562,-0.47992,-0.460101,-0.465418,-0.450917,-0.479114,-0.472186,-0.497321,-0.499577,-0.53438,-0.490554,-0.508439,-0.51005,-0.530674,-0.553231,-0.521329,-0.562093,-0.534541,-0.563704,-0.592223,-0.56306,-0.578689,-0.579333,-0.584167,-0.576272,-0.587873,-0.614297,-0.610752,-0.62477,-0.614297,-0.643461,-0.624931,-0.644911,-0.621548,-0.626865,-0.62477,-0.630732,-0.651194,-0.660701,-0.684547,-0.652,-0.663118,-0.671979,-0.651033,-0.657639,-0.681969,-0.650711,-0.67069,-0.682936,-0.66634,-0.688253,-0.66779,-0.673752,-0.69792,-0.671818,-0.682453,-0.676169,-0.687931,-0.688575,-0.70211,-0.67923,-0.651678,-0.711133,-0.678424,-0.691798,-0.708232,-0.695504,-0.701465,-0.693892,-0.693409,-0.692926,-0.718867,-0.697437,-0.7208,-0.713549,-0.676008,-0.702915,-0.702593,-0.712099,-0.715483,-0.714838,-0.717739,-0.723056,-0.715,-0.723217,-0.761242,-0.692926,-0.753186,-0.71645,-0.730951,-0.748191,-0.706621,-0.72789,-0.735946,-0.736107,-0.717416,-0.727567,-0.715,-0.735623,-0.721606,-0.732884,-0.714033,-0.705332,-0.723539,-0.716127,-0.71081,-0.703076,-0.724506,-0.685514,-0.696631,-0.724667,-0.685997,-0.710488,-0.684386,-0.708555,-0.682291,-0.688575,-0.680519,-0.705171,-0.737557,-0.658445,-0.717416,-0.662312,-0.73079,-0.713227,-0.685031,-0.702271,-0.713227,-0.714033,-0.709521,-0.715805,-0.66924,-0.718867,-0.724345,-0.691637,-0.693731,-0.703882,-0.658767,-0.696954,-0.705977,-0.703882,-0.709038,-0.675041,-0.662795,-0.673591,-0.664729,-0.675685,-0.66489,-0.672946,-0.646522,-0.685353,-0.652806,-0.662634,-0.677941,-0.63911,-0.676813,-0.652967,-0.664729,-0.671657,-0.676169,-0.656673,-0.666824,-0.657156,-0.657317,-0.656673,-0.652967,-0.656995,-0.639432,-0.669885,-0.656834,-0.641366,-0.634115,-0.654578,-0.636693,-0.636049,-0.651033,-0.616069,-0.655061,-0.648616,-0.637338,-0.609947,-0.634599,-0.645394,-0.637821,-0.652,-0.631537,-0.640077,-0.631537,-0.616714,-0.625092,-0.633954,-0.626059,-0.651033,-0.631215,-0.602374,-0.64056,-0.635404,-0.617358,-0.645394,-0.620098,-0.626381,-0.618164,-0.613169,-0.634115,-0.632343,-0.61478,-0.613491,-0.627026,-0.596735,-0.658767,-0.611236,-0.613169,-0.648778,-0.615425,-0.624287,-0.616875,-0.613653,-0.623642,-0.649905,-0.596251,-0.644588,-0.600924,-0.616069,-0.620742,-0.609302,-0.615747,-0.612041,-0.612525,-0.591095,-0.624287,-0.589645,-0.600118,-0.615908,-0.588034,-0.602052,-0.590612,-0.623481,-0.604146,-0.617197,-0.612041,-0.613653,-0.60608,-0.594479,-0.635082,-0.618809,-0.587389,-0.63186,-0.580944,-0.613653,-0.612525,-0.587228,-0.628476,-0.615103,-0.59609,-0.636049,-0.611719,-0.57885,-0.607852,-0.591417,-0.603502,-0.620742,-0.606402,-0.605919,-0.617842,-0.610108,-0.596573,-0.637177,-0.608497,-0.619453,-0.613008,-0.590934,-0.611236,-0.621064,-0.628959,-0.61897,-0.627509,-0.597701,-0.613814,-0.61188,-0.620581,-0.628959,-0.622031,-0.597701,-0.620098,-0.60044,-0.611236,-0.619131,-0.609141,-0.61188,-0.585456,-0.595123,-0.611558,-0.598668,-0.625092,-0.60044,-0.617036,-0.607208,-0.591901,-0.604146,-0.615586,-0.613975,-0.598185,-0.626059,-0.601407,-0.60318,-0.636532,-0.600924,-0.608497,-0.624448,-0.598024,-0.613169,-0.628476,-0.568699,-0.637982,-0.590934,-0.599151,-0.63186,-0.61897,-0.599151,-0.619453,-0.621064,-0.595284,-0.646361,-0.581589,-0.596573,-0.614942,-0.605435,-0.620742,-0.619775,-0.619131,-0.605435,-0.63766,-0.610913,-0.606402,-0.608819,-0.606885,-0.626059,-0.632182,-0.599313,-0.602374,-0.615586,-0.594157,-0.613491,-0.594318,-0.591901,-0.607691,-0.562899,-0.655223,-0.601085,-0.606402,-0.620259,-0.613008,-0.616714,-0.607208,-0.612202,-0.62042,-0.632182,-0.595929,-0.649744,-0.640883,-0.633954,-0.645555,-0.658767,-0.649422,-0.635888,-0.660862,-0.64201,-0.694698,-0.671496,-0.644588,-0.695504,-0.63186,-0.662312,-0.67488,-0.676652,-0.677619,-0.690509,-0.661023,-0.668918,-0.694053,-0.676169,-0.681002,-0.652967,-0.677297,-0.684547,-0.670368,-0.649261,-0.679713,-0.640721,-0.633793,-0.659251,-0.630087,-0.656512,-0.666662,-0.641688,-0.643783,-0.68213,-0.640238,-0.653934,-0.642977,-0.639916,-0.651678,-0.647005,-0.631376,-0.633632,-0.647005,-0.623965,-0.611397,-0.637982,-0.609786,-0.646683,-0.608013,-0.64056,-0.646844,-0.591579,-0.618003,-0.632504,-0.620903,-0.612202,-0.622514,-0.626543,-0.638143,-0.62767,-0.634438,-0.6462,-0.647166,-0.628476,-0.638466,-0.624126,-0.640721,-0.643783,-0.628637,-0.638143,-0.648778,-0.60753,-0.642333,-0.646522,-0.621225,-0.660862,-0.639594,-0.63621,-0.640883,-0.630409,-0.654417,-0.643138,-0.615103,-0.632826,-0.644588,-0.608174,-0.647328,-0.617358,-0.621387,-0.629765,-0.637338,-0.629282,-0.638466,-0.616714,-0.60753,-0.642816,-0.591095,-0.62622,-0.593673,-0.605113,-0.608658,-0.63186,-0.614942,-0.620259,-0.618486,-0.617036,-0.623159,-0.646683,-0.625092,-0.647166,-0.648294,-0.63476,-0.636693,-0.648455,-0.642172,-0.663762,-0.648616,-0.627026,-0.676652,-0.636854,-0.665051,-0.653128,-0.640883,-0.666662,-0.678747,-0.638143,-0.636693,-0.649422,-0.638627,-0.650711,-0.646844,-0.645877,-0.627187,-0.648133,-0.659573,-0.61333,-0.610269,-0.613008,-0.606563,-0.606563,-0.639594,-0.595607,-0.599635,-0.592545,-0.57595,-0.570955,-0.564832,-0.5861,-0.559354,-0.561126,-0.566282,-0.552748,-0.583522,-0.525518,-0.572244,-0.559515,-0.549042,-0.569666,-0.591417,-0.545175,-0.613975,-0.557098,-0.555809,-0.610913,-0.584006,-0.636049,-0.603018,-0.59464,-0.62767,-0.627348,-0.62042,-0.622514,-0.604791,-0.635727,-0.638788,-0.642655,-0.611558,-0.62912,-0.62767,-0.659412,-0.646039,-0.652322,-0.645072,-0.648294,-0.61897,-0.64765,-0.658606,-0.620581,-0.666985,-0.62767,-0.647811,-0.673591,-0.637016,-0.67343,-0.685514,-0.656512,-0.66489,-0.686158,-0.658284,-0.658445,-0.680036,-0.658123,-0.682453,-0.676813,-0.686803,-0.68358,-0.711616,-0.683097,-0.706299,-0.714677,-0.692603,-0.719994,-0.709199,-0.707105,-0.739329,-0.731756,-0.715966,-0.758664,-0.736912,-0.726923,-0.76382,-0.748997,-0.767043,-0.77381,-0.754314,-0.783638,-0.788794,-0.771554,-0.786539,-0.7896,-0.779933,-0.799912,-0.79959,-0.781383,-0.79959,-0.791372,-0.797495,-0.801523,-0.816024,-0.816185,-0.816185,-0.810224,-0.805712,-0.827786,-0.819247,-0.830525,-0.82827,-0.840032,-0.856466,-0.858883,-0.857272,-0.875479,-0.8613,-0.881118,-0.895781,-0.889336,-0.884341,-0.894008,-0.89707,-0.888369,-0.886435,-0.910121,-0.898842,-0.904159,-0.908026,-0.908187,-0.912215,-0.899648,-0.904643,-0.894008,-0.902709,-0.899003,-0.892075,-0.883696,-0.896586,-0.894169,-0.891269,-0.899325,-0.878702,-0.894169,-0.887886,-0.857917,-0.857111,-0.878379,-0.849216,-0.885791,-0.855661,-0.844382,-0.882407,-0.829075,-0.848732,-0.870968,-0.827947,-0.870001,-0.844704,-0.834715,-0.846638,-0.870968,-0.833748,-0.846155,-0.848571,-0.829559,-0.854694,-0.845188,-0.846477,-0.83117,-0.855822,-0.847282,-0.850344,-0.847121,-0.838743,-0.882085,-0.838582,-0.861784,-0.853566,-0.867906,-0.877574,-0.892397,-0.87419,-0.887563,-0.889497,-0.874673,-0.918499,-0.890625,-0.924461,-0.915599,-0.932034,-0.931389,-0.918177,-0.929939,-0.930745,-0.940734,-0.945407,-0.940412,-0.934773,-0.948629,-0.944762,-0.946051,-0.936384,-0.938479,-0.941701,-0.956524,-0.961036,-0.947179,-0.945246,-0.947179,-0.937351,-0.962325,-0.947985,-0.966675,-0.974087,-0.959102,-0.964581,-0.976343,-0.981982,-0.980532,-0.986816,-0.975859,-0.994066,-0.987782,-0.99455,-1.010984,-0.998417,-1.005506,-1.002123,-1.007117,-0.990683,-0.999545,-1.0018,-0.986171,-1.00325,-0.997611,-0.977632,-0.989555,-0.990522,-0.946857,-0.974893,-0.938962,-0.927039,-0.936867,-0.885469,-0.93445,-0.892397,-0.900614,-0.891753,-0.861622,-0.851955,-0.838259,-0.847282,-0.827947,-0.859206,-0.7838,-0.808451,-0.772521,-0.789117,-0.762209,-0.740618,-0.705332,-0.707749,-0.708555,-0.651517,-0.637982,-0.634276,-0.587389,-0.57176,-0.554037,-0.481209,-0.466063,-0.435933,-0.384051,-0.381312,-0.330558,-0.308322,-0.281737,-0.187479,-0.192796,-0.104339,-0.095639,-0.070986,-0.02426,0.020693,0.044217,0.095294,0.126391,0.147498,0.21082,0.180851,0.238856,0.289932,0.27817,0.287676,0.308784,0.329247,0.327797,0.305884,0.294121,0.279459,0.254485,0.232894,0.233378,0.180851,0.160227,0.110117,0.074992,0.014409,-0.022166,-0.07002,-0.165244,-0.183129,-0.237267,-0.28931,-0.347315,-0.409992,-0.487654,-0.482014,-0.57176,-0.61897,-0.688253,-0.699209,-0.766237,-0.778644,-0.862106,-0.860978,-0.907704,-0.929617,-0.94444,-0.953302,-0.98166,-0.980371,-0.989233,-1.004217,-1.001317,-0.999706,-1.005828,-1.008729,-0.980854,-1.003734,-0.977148,-0.972153,-0.981499,-0.942668,-0.940251,-0.90432,-0.927522,-0.909315,-0.893042,-0.909798,-0.894975,-0.857755,-0.86839,-0.851955,-0.83262,-0.825853,-0.795078,-0.804423,-0.806679,-0.786861,-0.783638,-0.783155,-0.755119,-0.771876,-0.735946,-0.732723,-0.764787,-0.738524,-0.737557,-0.740618,-0.724345,-0.72934,-0.7208,-0.709199,-0.688736,-0.691798,-0.698082,-0.678747,-0.699693,-0.676491,-0.693248,-0.680841,-0.662312,-0.674719,-0.701626,-0.655384,-0.67343,-0.652322,-0.665857,-0.699854,-0.671818,-0.668757,-0.680841,-0.664084,-0.680036,-0.692442,-0.669079,-0.681647,-0.694537,-0.644427,-0.712905,-0.693731,-0.670207,-0.692442,-0.659412,-0.670207,-0.683903,-0.690509,-0.670368,-0.66779,-0.657317,-0.666824,-0.699854,-0.653611,-0.669885,-0.638305,-0.657801,-0.67069,-0.658606,-0.633954,-0.661345,-0.651839,-0.60608,-0.660379,-0.620259,-0.646039,-0.639432,-0.585456,-0.639594,-0.598185,-0.605274,-0.625737,-0.591095,-0.577561,-0.625576,-0.608013,-0.582717,-0.5803,-0.560321,-0.579494,-0.558065,-0.582556,-0.567893,-0.568216,-0.563221,-0.566443,-0.570794,-0.53583,-0.563382,-0.520362,-0.530674,-0.54308,-0.571116,-0.539858,-0.544853,-0.530351,-0.521006,-0.527935,-0.527451,-0.532285,-0.536796,-0.518428,-0.499738,-0.501188,-0.541308,-0.511017,-0.535346,-0.491198,-0.498449,-0.511178,-0.474925,-0.487815,-0.481853,-0.47283,-0.482981,-0.511661,-0.494904,-0.462518,-0.456718,-0.430455,-0.480242,-0.445439,-0.444956,-0.440766,-0.414826,-0.415953,-0.42691,-0.418692,-0.412892,-0.443344,-0.388562,-0.432871,-0.354887,-0.412086,-0.421754,-0.365522,-0.382601,-0.37535,-0.369711,-0.38679,-0.368905,-0.362138,-0.339581,-0.364071,-0.32943,-0.366649,-0.335875,-0.30365,-0.339419,-0.333619,-0.320407,-0.322824,-0.318796,-0.305583,-0.328946,-0.277709,-0.301877,-0.312351,-0.282865,-0.31799,-0.323146,-0.291404,-0.305583,-0.301394,-0.285443,-0.341997,-0.270781,-0.322018,-0.312512,-0.26788,-0.293982,-0.277064,-0.277387,-0.285926,-0.286248,-0.251446,-0.28222,-0.242906,-0.271586,-0.268525,-0.235817,-0.261758,-0.202464,-0.253057,-0.221154,-0.226471,-0.20472,-0.226149,-0.221638,-0.177812,-0.21761,-0.228083,-0.23195,-0.220026,-0.199403,-0.185546,-0.19328,-0.20762,-0.224699,-0.22051,-0.191669,-0.191507,-0.228566,-0.192635,-0.216321,-0.195374,-0.17894,-0.225505,-0.203431,-0.199725,-0.212776,-0.210198,-0.21342,-0.248223,-0.225666,-0.211648,-0.255474,-0.193924,-0.216159,-0.225021,-0.182484,-0.210681,-0.206814,-0.166694,-0.208103,-0.196986,-0.188929,-0.196663,-0.18764,-0.174751,-0.144298,-0.192635,-0.218899,-0.159121,-0.152676,-0.134792,-0.161861,-0.155577,-0.132858,-0.152838,-0.108528,-0.122869,-0.167983,-0.11014,-0.12303,-0.117551,-0.097572,-0.113362,-0.107562,-0.084038,-0.120613,-0.124158,-0.074048,-0.11449,-0.106917,-0.076465,-0.13737,-0.079526,-0.094833,-0.078398,-0.126574,-0.099183,-0.113846,-0.093222,-0.125769,-0.081137,-0.105628,-0.105789,-0.107401,-0.096605,-0.123996,-0.102567,-0.104017,-0.114329,-0.106434,-0.098055,-0.138336,-0.088388,-0.13592,-0.138981,-0.091449,-0.123674,-0.091449,-0.131086,-0.12738,-0.120291,-0.104178,-0.142687,-0.094994,-0.100472,-0.156866,-0.098861,-0.123996,-0.122224,-0.11739,-0.134792,-0.136886,-0.107239,-0.112395,-0.112879,-0.138175,-0.139787,-0.103211,-0.124319,-0.114651,-0.11159,-0.131247,-0.12303,-0.087099,-0.118357,-0.157027,-0.111106,-0.135758,-0.148326,-0.120774,-0.152999,-0.104984,-0.15171,-0.15896,-0.129152,-0.161699,-0.158799,-0.138175,-0.189091,-0.211487,-0.150743,-0.194408,-0.1646,-0.170239,-0.198919,-0.206331,-0.198275,-0.191991,-0.200369,-0.226633,-0.230499,-0.216482,-0.2421,-0.244678,-0.203592,-0.248223,-0.237267,-0.224377,-0.254024,-0.221799,-0.2392,-0.258213,-0.261435,-0.234205,-0.264658,-0.226794,-0.26353,-0.248384,-0.239684,-0.247095,-0.234044,-0.2421,-0.24919,-0.259663,-0.249351,-0.210198,-0.244195,-0.238878,-0.223893,-0.236944,-0.216321,-0.252412,-0.245967,-0.211809,-0.240167,-0.242262,-0.227922,-0.276742,-0.239039,-0.247256,-0.246612,-0.233883,-0.264658,-0.289149,-0.259663,-0.25354,-0.286732,-0.281898,-0.296883,-0.311867,-0.298333,-0.276903,-0.330235,-0.333297,-0.30655,-0.338614,-0.374222,-0.36101,-0.360849,-0.334747,-0.36391,-0.340547,-0.384373,-0.419498,-0.360366,-0.380184,-0.413537,-0.388723,-0.428199,-0.410153,-0.403225,-0.438027,-0.39259,-0.432227,-0.414826,-0.433677,-0.438027,-0.437222,-0.437544,-0.427071,-0.4398,-0.419015,-0.463968,-0.435127,-0.438833,-0.470897,-0.465741,-0.479597,-0.476375,-0.496032,-0.476214,-0.492971,-0.490232,-0.472991,-0.506022,-0.514884,-0.521167,-0.546303,-0.519878,-0.516817,-0.554681,-0.50151,-0.522134,-0.567893,-0.524873,-0.548558,-0.539697,-0.538247,-0.543886,-0.538891,-0.56161,-0.585778,-0.541791,-0.507472,-0.585295,-0.522618,-0.565315,-0.549847,-0.564026,-0.58175,-0.559193,-0.577722,-0.579817,-0.596735,-0.582878,-0.574499,-0.593834,-0.612525,-0.5861,-0.582072,-0.628959,-0.610913,-0.645072,-0.618003,-0.619292,-0.649261,-0.613814,-0.641688,-0.63476,-0.649261,-0.641366,-0.640077,-0.63766,-0.625898,-0.647811,-0.642333,-0.651678,-0.626865,-0.686481,-0.667951,-0.671174,-0.674074,-0.654739,-0.671979,-0.675685,-0.658928,-0.67343,-0.689864,-0.641527,-0.708071,-0.651678,-0.665535,-0.684064,-0.676169,-0.695504,-0.664084,-0.665857,-0.67343,-0.677458,-0.669079,-0.689703,-0.665535,-0.654095,-0.679069,-0.66344,-0.673591,-0.667468,-0.674396,-0.681002,-0.70066,-0.69357,-0.668596,-0.681486,-0.680358,-0.681486,-0.687609,-0.690509,-0.663118,-0.700821,-0.656028,-0.712744,-0.693087,-0.696793,-0.69067,-0.70356,-0.714355,-0.70791,-0.690831,-0.714516,-0.662957,-0.692926,-0.691959,-0.685997,-0.684869,-0.668274,-0.66634,-0.656512,-0.695987,-0.653772,-0.649905,-0.676652,-0.668113,-0.665857,-0.666662,-0.669079,-0.644427,-0.674557,-0.640721,-0.646361,-0.671496,-0.64056,-0.672785,-0.686481,-0.640721,-0.689703,-0.66199,-0.657639,-0.674719,-0.651839,-0.650389,-0.676813,-0.652161,-0.674396,-0.673591,-0.630409,-0.680841,-0.682291,-0.645877,-0.668757,-0.66199,-0.669401,-0.704365,-0.652161,-0.672302,-0.669401,-0.665696,-0.663923,-0.654256,-0.661345,-0.662634,-0.669724,-0.664407,-0.685836,-0.665212,-0.68358,-0.667468,-0.679713,-0.680519,-0.667468,-0.660217,-0.615103,-0.694053,-0.612525,-0.649905,-0.666018,-0.622192,-0.665212,-0.657801,-0.649583,-0.64765,-0.637982,-0.626059,-0.663601,-0.616069,-0.635404,-0.655545,-0.616553,-0.649261,-0.620742,-0.652483,-0.611075,-0.615425,-0.615908,-0.604469,-0.637338,-0.604791,-0.641205,-0.598346,-0.621225,-0.632504,-0.618647,-0.601891,-0.587228,-0.631537,-0.588839,-0.658445,-0.622837,-0.592868,-0.624931,-0.61897,-0.596412,-0.602213,-0.594962,-0.62042,-0.619775,-0.611397,-0.614136,-0.591095,-0.598829,-0.599151,-0.626865,-0.609624,-0.578528,-0.603663,-0.588517,-0.61897,-0.611397,-0.57176,-0.645072,-0.600602,-0.615747,-0.608013,-0.583361,-0.611075,-0.607046,-0.603824,-0.605113,-0.591256,-0.605113,-0.636693,-0.576755,-0.608013,-0.587067,-0.61188,-0.609141,-0.59609,-0.596412,-0.568538,-0.579333,-0.61752,-0.62767,-0.550009,-0.593029,-0.593351,-0.585778,-0.618003,-0.613491,-0.576916,-0.574338,-0.612202,-0.588839,-0.597218,-0.604469,-0.589001,-0.600279,-0.622514,-0.590934,-0.626704,-0.59609,-0.598185,-0.615425,-0.593512,-0.574499,-0.613653,-0.549847,-0.593834,-0.582072,-0.588195,-0.600279,-0.592706,-0.560482,-0.590934,-0.576433,-0.592545,-0.609786,-0.567249,-0.599635,-0.605435,-0.579978,-0.573372,-0.56596,-0.592868,-0.568216,-0.607691,-0.580622,-0.599957,-0.608658,-0.591256,-0.603985,-0.603985,-0.608497,-0.612525,-0.590773,-0.626704,-0.63621,-0.591901,-0.60608,-0.656189,-0.573372,-0.63331,-0.599796,-0.598024,-0.618647,-0.583039,-0.586584,-0.61043,-0.573533,-0.59319,-0.62912,-0.575144,-0.596896,-0.613975,-0.580461,-0.575466,-0.598024,-0.574499,-0.579333,-0.583039,-0.592545,-0.552748,-0.615103,-0.575788,-0.594962,-0.60044,-0.560804,-0.594318,-0.599635,-0.577077,-0.572566,-0.594157,-0.56306,-0.616392,-0.569505,-0.59464,-0.581589,-0.580461,-0.595123,-0.600602,-0.634921,-0.586745,-0.607691,-0.6462,-0.610913,-0.615747,-0.611075,-0.626704,-0.595123,-0.62187,-0.63766,-0.627026,-0.611075,-0.681647,-0.618809,-0.683419,-0.655223,-0.627187,-0.675846,-0.652806,-0.641044,-0.688414,-0.660217,-0.652322,-0.66924,-0.633632,-0.647811,-0.699209,-0.630732,-0.650389,-0.659412,-0.645233,-0.67923,-0.669401,-0.642977,-0.654256,-0.671818,-0.634599,-0.644911,-0.657962,-0.635404,-0.671818,-0.608819,-0.628959,-0.672302,-0.646683,-0.612847,-0.640077,-0.649583,-0.614458,-0.652806,-0.627348,-0.681969,-0.616714,-0.62912,-0.659251,-0.654095,-0.637016,-0.672141,-0.627348,-0.651033,-0.681002,-0.640238,-0.638949,-0.640883,-0.627993,-0.654417,-0.609141,-0.646844,-0.624287,-0.619936,-0.627187,-0.625898,-0.631537,-0.61752,-0.620903,-0.597862,-0.602374,-0.61752,-0.608335,-0.639594,-0.59754,-0.605919,-0.5774,-0.63766,-0.578044,-0.578689,-0.597379,-0.599635,-0.585295,-0.559515,-0.561932,-0.589001,-0.596251,-0.582717,-0.584006,-0.575305,-0.572083,-0.594318,-0.574983,-0.563221,-0.588034,-0.547108,-0.580461,-0.591417,-0.547914,-0.576755,-0.595446,-0.541308,-0.606563,-0.593673,-0.606241,-0.576272,-0.604146,-0.604791,-0.625737,-0.60608,-0.61333,-0.642172,-0.613814,-0.637982,-0.618647,-0.636371,-0.607046,-0.652161,-0.607208,-0.622837,-0.612847,-0.615747,-0.617197,-0.62332,-0.60608,-0.63331,-0.602696,-0.601407,-0.589323,-0.576272,-0.580944,-0.610913,-0.580139,-0.576916,-0.570632,-0.56451,-0.617036,-0.576916,-0.587389,-0.589645,-0.578689,-0.558548,-0.595929,-0.578366,-0.600279,-0.612525,-0.574499,-0.581428,-0.596573,-0.56886,-0.591417,-0.575144,-0.570149,-0.604469,-0.586262,-0.571921,-0.602052,-0.583361,-0.598668,-0.595123,-0.60463,-0.593834,-0.60463,-0.576111,-0.624287,-0.617197,-0.583361,-0.627831,-0.606402,-0.610913,-0.643783,-0.608174,-0.628315,-0.613814,-0.599635,-0.628959,-0.619936,-0.598185,-0.625415,-0.605596,-0.608497,-0.63766,-0.602696,-0.626381,-0.622031,-0.642977,-0.639916,-0.637499,-0.640399,-0.646522,-0.648455,-0.637499,-0.662795,-0.638788,-0.66199,-0.646844,-0.66344,-0.651839,-0.663118,-0.663601,-0.64475,-0.695342,-0.665373,-0.676813,-0.71935,-0.647972,-0.680197,-0.678424,-0.694698,-0.684064,-0.700982,-0.671496,-0.702754,-0.700015,-0.683419,-0.700176,-0.682936,-0.724989,-0.701143,-0.691153,-0.679069,-0.694215,-0.677135,-0.698243,-0.7179,-0.676491,-0.695504,-0.686481,-0.713711,-0.694537,-0.695342,-0.671335,-0.687125,-0.711616,-0.685836,-0.721606,-0.679713,-0.69792,-0.710649,-0.679713,-0.690992,-0.695826,-0.688414,-0.678263,-0.690348,-0.664246,-0.672946,-0.66924,-0.657478,-0.684708,-0.636371,-0.660701,-0.64765,-0.666501,-0.639594,-0.659573,-0.633632,-0.638788,-0.657317,-0.624609,-0.640238,-0.655867,-0.6462,-0.678102,-0.631054,-0.64765,-0.668757,-0.635404,-0.627831,-0.654256,-0.611719,-0.636532,-0.644911,-0.618486,-0.675202,-0.643138,-0.66054,-0.650389,-0.658606,-0.617842,-0.65055,-0.648616,-0.633954,-0.652645,-0.635727,-0.632182,-0.634276,-0.628476,-0.614297,-0.623481,-0.622353,-0.605435,-0.656673,-0.596896,-0.601407,-0.626704,-0.610269,-0.640077,-0.62042,-0.614619,-0.635565,-0.598507,-0.643461,-0.638949,-0.624287,-0.632182,-0.641849,-0.625415,-0.610108,-0.61043,-0.613008,-0.594479,-0.616069,-0.614942,-0.600602,-0.615586,-0.589162,-0.60463,-0.572566,-0.580139,-0.580783,-0.569666,-0.557259,-0.549525,-0.497804,-0.518267,-0.544047,-0.48282,-0.493776,-0.460746,-0.46558,-0.475892,-0.472025,-0.421432,-0.415953,-0.416276,-0.400485,-0.399196,-0.37245,-0.357304,-0.340225,-0.294305,-0.241778,-0.237106,-0.207136,-0.16041,-0.155899,-0.08291,-0.066314,-0.058741,0.023593,0.034067,0.106734,0.13058,0.178273,0.189552,0.271564,0.285743,0.33972,0.388863,0.407553,0.47007,0.500683,0.528397,0.555627,0.576734,0.601386,0.626039,0.636673,0.658425,0.663258,0.680177,0.691778,0.691939,0.699673,0.68646,0.677921,0.664547,0.643601,0.628939,0.577379,0.567389,0.502133,0.438006,0.413354,0.33682,0.298794,0.2366,0.15491,0.076926,0.027783,-0.067925,-0.116746,-0.154932,-0.263047,-0.262241,-0.370355,-0.424332,-0.479597,-0.542114,-0.60463,-0.625737,-0.661829,-0.749641,-0.764465,-0.789922,-0.81973,-0.827786,-0.849699,-0.850505,-0.866134,-0.873707,-0.877574,-0.859044,-0.881602,-0.875801,-0.8642,-0.863556,-0.835359,-0.851633,-0.813285,-0.813124,-0.783155,-0.794595,-0.77381,-0.781705,-0.745774,-0.715805,-0.750125,-0.687609,-0.717255,-0.689059,-0.678908,-0.67778,-0.645394,-0.644105,-0.656028,-0.622192,-0.64765,-0.677619,-0.621064,-0.608819,-0.646683,-0.592868,-0.6491,-0.626704,-0.623642,-0.613814,-0.614619,-0.575627,-0.617197,-0.598507,-0.590934,-0.642333,-0.593834,-0.600279,-0.589806,-0.596896,-0.600118,-0.609141,-0.594962,-0.59174,-0.620098,-0.584973,-0.619614,-0.609947,-0.612847,-0.584489,-0.603985,-0.590451,-0.59464,-0.630248,-0.588356,-0.614458,-0.593351,-0.594962,-0.619292,-0.596251,-0.615908,-0.589323,-0.584167,-0.611236,-0.590128,-0.59174,-0.592706,-0.580139,-0.57321,-0.57176,-0.592384,-0.587712,-0.575305,-0.591901,-0.576111,-0.57885,-0.57031,-0.530996,-0.612202,-0.534218,-0.542436,-0.550331,-0.550814,-0.559998,-0.563382,-0.504894,-0.547753,-0.528901,-0.516011,-0.542758,-0.50441,-0.517462,-0.526001,-0.49716,-0.520362,-0.51585,-0.484753,-0.526162,-0.499899,-0.498932,-0.516173,-0.513917,-0.496999,-0.543403,-0.48572,-0.504249,-0.501349,-0.474925,-0.484914,-0.491843,-0.49007,-0.474925,-0.46139,-0.445439,-0.450434,-0.435127,-0.423365,-0.41547,-0.441894,-0.404675,-0.364394,-0.425299,-0.389529,-0.387112,-0.390335,-0.3797,-0.378411,-0.353598,-0.357465,-0.352632,-0.341353,-0.32798,-0.350537,-0.334263,-0.347476,-0.327818,-0.329752,-0.337325,-0.326529,-0.35102,-0.298816,-0.323146,-0.302683,-0.315573,-0.308806,-0.316056,-0.305583,-0.298655,-0.33813,-0.280609,-0.331202,-0.317345,-0.312512,-0.280287,-0.302039,-0.283348,-0.331202,-0.340064,-0.265625,-0.309934,-0.303005,-0.281898,-0.325079,-0.315412,-0.275937,-0.310417,-0.284476,-0.320246,-0.333136,-0.308806,-0.289471,-0.312189,-0.29656,-0.30945,-0.313156,-0.315895,-0.288988,-0.323952,-0.341031,-0.326046,-0.311545,-0.32234,-0.322663,-0.325402,-0.350698,-0.314284,-0.361493,-0.294466,-0.335069,-0.304294,-0.300589,-0.342642,-0.297849,-0.296722,-0.281415,-0.324757,-0.285604,-0.287537,-0.257891,-0.300427,-0.250318,-0.251446,-0.284637,-0.210842,-0.229372,-0.250157,-0.225021,-0.239522,-0.234205,-0.219704,-0.23485,-0.235011,-0.224538,-0.235817,-0.225988,-0.225505,-0.228244,-0.197952,-0.237589,-0.236783,-0.202142,-0.218415,-0.189896,-0.204075,-0.203592,-0.219543,-0.197147,-0.192152,-0.190702,-0.207942,-0.201014,-0.208264,-0.200369,-0.197469,-0.190057,-0.143976,-0.184579,-0.167983,-0.179262,-0.150099,-0.155738,-0.185868,-0.151226,-0.151549,-0.1646,-0.11884,-0.139625,-0.159605,-0.128347,-0.145909,-0.122546,-0.117713,-0.130764,-0.158477,-0.115135,-0.131247,-0.121418,-0.113523,-0.122063,-0.138498,-0.140592,-0.156382,-0.121902,-0.128347,-0.145909,-0.109334,-0.134308,-0.143654,-0.131891,-0.112234,-0.143976,-0.116907,-0.130764,-0.141559,-0.098217,-0.115135,-0.145104,-0.120129,-0.107078,-0.098217,-0.097572,-0.114973,-0.11449,-0.105467,-0.120129,-0.114973,-0.113523,-0.130925,-0.109173,-0.089838,-0.136081,-0.096605,-0.120935,-0.133503,-0.137047,-0.15896,-0.138981,-0.149615,-0.148004,-0.144459,-0.15316,-0.180068,-0.155738,-0.16041,-0.200208,-0.157994,-0.211648,-0.19038,-0.195052,-0.222443,-0.220993,-0.222766,-0.220349,-0.212292,-0.218737,-0.249512,-0.240811,-0.245162,-0.254507,-0.250962,-0.253701,-0.254185,-0.232111,-0.259824,-0.264658,-0.256279,-0.259018,-0.298494,-0.262724,-0.278192,-0.284476,-0.27207,-0.284637,-0.293821,-0.261435,-0.301555,-0.312189,-0.278353,-0.302361,-0.255957,-0.29366,-0.321535,-0.291888,-0.290115,-0.288021,-0.275453,-0.312512,-0.312028,-0.287376,-0.302683,-0.302844,-0.300266,-0.34087,-0.280126,-0.327174,-0.299944,-0.297044,-0.298172,-0.32234,-0.322501,-0.328463,-0.335552,-0.323146,-0.346026,-0.346026,-0.365522,-0.340225,-0.347153,-0.365844,-0.374544,-0.39259,-0.38244,-0.435449,-0.393718,-0.429166,-0.449951,-0.430616,-0.442217,-0.45994,-0.470252,-0.46284,-0.493454,-0.458007,-0.491521,-0.511661,-0.472347,-0.518106,-0.489104,-0.506183,-0.533091,-0.499255,-0.532929,-0.539697,-0.495065,-0.516173,-0.534541,-0.49861,-0.571599,-0.534702,-0.532124,-0.571599,-0.536635,-0.551459,-0.572244,-0.570471,-0.567571,-0.588034,-0.564671,-0.577722,-0.614942,-0.585456,-0.579494,-0.618325,-0.605113,-0.59899,-0.657156,-0.629926,-0.639755,-0.657478,-0.669401,-0.651839,-0.691314,-0.689381,-0.676169,-0.715322,-0.676491,-0.709199,-0.725312,-0.729823,-0.744324,-0.736429,-0.739813,-0.768009,-0.754636,-0.778321,-0.777516,-0.789761,-0.791856,-0.798784,-0.799429,-0.80394,-0.809418,-0.797817,-0.819086,-0.829559,-0.830364,-0.838098,-0.849216,-0.848571,-0.855016,-0.857594,-0.858239,-0.876124,-0.871934,-0.877574,-0.862428,-0.88128,-0.876607,-0.875801,-0.899003,-0.893364,-0.896103,-0.88853,-0.913021,-0.905287,-0.914954,-0.909315,-0.913343,-0.920755,-0.922527,-0.922688,-0.938156,-0.936223,-0.952335,-0.949757,-0.946535,-0.957813,-0.965547,-0.961842,-0.97167,-0.981015,-0.987944,-0.991811,-0.994711,-1.000672,-1.015174,-1.020168,-1.022263,-1.050943,-1.045948,-1.051426,-1.054327,-1.067539,-1.077367,-1.07624,-1.074306,-1.086229,-1.105403,-1.083812,-1.09783,-1.101536,-1.108142,-1.114265,-1.120065,-1.126349,-1.124416,-1.124577,-1.129249,-1.131344,-1.120549,-1.110559,-1.108787,-1.113781,-1.123771,-1.105081,-1.117487,-1.120065,-1.108625,-1.11072,-1.103308,-1.122965,-1.10492,-1.111365,-1.119421,-1.124093,-1.112976,-1.130216,-1.122321,-1.140367,-1.134728,-1.121838,-1.139561,-1.117648,-1.129572,-1.131988,-1.131666,-1.131344,-1.127477,-1.118937,-1.142945,-1.134566,-1.145523,-1.142623,-1.1336,-1.138756,-1.136983,-1.144395,-1.144878,-1.128766,-1.136017,-1.130538,-1.135694,-1.147617,-1.132311,-1.152773,-1.144717,-1.145684,-1.146973,-1.153257,-1.147134,-1.157285,-1.148906,-1.16373,-1.153257,-1.164697,-1.153901,-1.145362,-1.156802,-1.167275,-1.150357,-1.165341,-1.161957,-1.14939,-1.174042,-1.165019,-1.16083,-1.169691,-1.157929,-1.166791,-1.151001,-1.155996,-1.158413,-1.164535,-1.155996,-1.157285,-1.150195,-1.146167,-1.150518,-1.177909,-1.139722,-1.163408,-1.161313,-1.144878,-1.155351,-1.157285,-1.152773,-1.164052,-1.147134,-1.141172,-1.158735,-1.14649,-1.139561,-1.137789,-1.143912,-1.141011,-1.145845,-1.145523,-1.135372,-1.150679,-1.130699,-1.146006,-1.142784,-1.12216,-1.126994,-1.117004,-1.123127,-1.132311,-1.128121,-1.095897,-1.121354,-1.091385,-1.102342,-1.111848,-1.074306,-1.101214,-1.100408,-1.070922,-1.088163,-1.102664,-1.073017,-1.070761,-1.064316,-1.067055,-1.090902,-1.035475,-1.068022,-1.058677,-1.049332,-1.047076,-1.058355,-1.046109,-1.048526,-1.023713,-1.027097,-1.023552,-1.002445,-1.032414,-1.030641,-1.015335,-1.014046,-1.001961,-1.011468,-0.994227,-1.012434,-0.975537,-1.02468,-1.025808,-0.977793,-1.022746,-0.998417,-0.982788,-0.983593,-0.981821,-0.971187,-0.992938,-0.983916,-0.962003,-0.997128,-0.961519,-0.975698,-0.972315,-0.944601,-0.944279,-0.958136,-0.926555,-0.955397,-0.938801,-0.909154,-0.949918,-0.921883,-0.922688,-0.922366,-0.911732,-0.927039,-0.916727,-0.915116,-0.884502,-0.916243,-0.886113,-0.907865,-0.913343,-0.915116,-0.928328,-0.894169,-0.922688,-0.913827,-0.915599,-0.941057,-0.878218,-0.89852,-0.897553,-0.902226,-0.883535,-0.895781,-0.879829,-0.887886,-0.885469,-0.893686,-0.89143,-0.88998,-0.880957,-0.861461,-0.901259,-0.865006,-0.855177,-0.892558,-0.870806,-0.84551,-0.861139,-0.83117,-0.887402,-0.856305,-0.811835,-0.857755,-0.842771,-0.808774,-0.8584,-0.804907,-0.835843,-0.847443,-0.830203,-0.808451,-0.829559,-0.814252,-0.794917,-0.840515,-0.807968,-0.840676,-0.80684,-0.799106,-0.791533,-0.804423,-0.78815,-0.7954,-0.786055,-0.736912,-0.814091,-0.766882,-0.773488,-0.769298,-0.779449,-0.771393,-0.788472,-0.76092,-0.752864,-0.756731,-0.73224,-0.780738,-0.738201,-0.74368,-0.764142,-0.722734,-0.795239,-0.747386,-0.739329,-0.743357,-0.736107,-0.739652,-0.742068,-0.733368,-0.733529,-0.729178,-0.724828,-0.736429,-0.750608,-0.719994,-0.701787,-0.724828,-0.713872,-0.686803,-0.728212,-0.662312,-0.701143,-0.704849,-0.703721,-0.690348,-0.681808,-0.708716,-0.681164,-0.696309,-0.705977,-0.663118,-0.719994,-0.675202,-0.687609,-0.675041,-0.698404,-0.671657,-0.678424,-0.646683,-0.701465,-0.674074,-0.650389,-0.699693,-0.66344,-0.635727,-0.655867,-0.645394,-0.634438,-0.62042,-0.619131,-0.642655,-0.637821,-0.601729,-0.633954,-0.56741,-0.603663,-0.624609,-0.586262,-0.593351,-0.581428,-0.623642,-0.621064,-0.58465,-0.587389,-0.590934,-0.596896,-0.578528,-0.609141,-0.577883,-0.600763,-0.580139,-0.576755,-0.53583,-0.557581,-0.56596,-0.538085,-0.547108,-0.509889,-0.57031,-0.544853,-0.520684,-0.550975,-0.51005,-0.502155,-0.543725,-0.521651,-0.502638,-0.546303,-0.506505,-0.508439,-0.513917,-0.486203,-0.468319,-0.489587,-0.513433,-0.490876,-0.483948,-0.47138,-0.462679,-0.50006,-0.489265,-0.478792,-0.441894,-0.506022,-0.440122,-0.479759,-0.44705,-0.464291,-0.470413,-0.459618,-0.496838,-0.448017,-0.455429,-0.460101,-0.49007,-0.477181,-0.458651,-0.459779,-0.485559,-0.482336,-0.461229,-0.45994,-0.449306,-0.468319,-0.487009,-0.456073,-0.468319,-0.478147,-0.473958,-0.485398,-0.473636,-0.464129,-0.496677,-0.485237,-0.475408,-0.452045,-0.443344,-0.474925,-0.497966,-0.482175,-0.471058,-0.468802,-0.461068,-0.442539,-0.492971,-0.454784,-0.455107,-0.461874,-0.425782,-0.461713,-0.468641,-0.429649,-0.458974,-0.445439,-0.409347,-0.450112,-0.394524,-0.424815,-0.448823,-0.41837,-0.407253,-0.398069,-0.42836,-0.424171,-0.402741,-0.421109,-0.430938,-0.408542,-0.421915,-0.411603,-0.428843,-0.414503,-0.431582,-0.411925,-0.402258,-0.428199,-0.420948,-0.43271,-0.42981,-0.438511,-0.459457,-0.421915,-0.457685,-0.442861,-0.4456,-0.474764,-0.475408,-0.446245,-0.455912,-0.489748,-0.425621,-0.48717,-0.453334,-0.489104,-0.497643,-0.498771,-0.482336,-0.495226,-0.49861,-0.467996,-0.512144,-0.493937,-0.496193,-0.474925,-0.46558,-0.455429,-0.511178,-0.492004,-0.488459,-0.518106,-0.464291,-0.491843,-0.507472,-0.48572,-0.505699,-0.500866,-0.486042,-0.51585,-0.519717,-0.490554,-0.514561,-0.491198,-0.496999,-0.527935,-0.503283,-0.52294,-0.51295,-0.510533,-0.506827,-0.517462,-0.47992,-0.523423,-0.501349,-0.513111,-0.522618,-0.504733,-0.503444,-0.535346,-0.499577,-0.519395,-0.52004,-0.508277,-0.540986,-0.512144,-0.488943,-0.540825,-0.513595,-0.540663,-0.517784,-0.512144,-0.539858,-0.528418,-0.502477,-0.54308,-0.541469,-0.523745,-0.525034,-0.536796,-0.516978,-0.518912,-0.53873,-0.52874,-0.543725,-0.547592,-0.525518,-0.549364,-0.538085,-0.496515,-0.546303,-0.499255,-0.549203,-0.5115,-0.532285,-0.538247,-0.541952,-0.536958,-0.523262,-0.53438,-0.543886,-0.530029,-0.526001,-0.535991,-0.518267,-0.506827,-0.529062,-0.526001,-0.528418,-0.493132,-0.514239,-0.503766,-0.521329,-0.498932,-0.483948,-0.521651,-0.477019,-0.503283,-0.488943,-0.503605,-0.478631,-0.487331,-0.50296,-0.472669,-0.495388,-0.469447,-0.46703,-0.480242,-0.501349,-0.467513,-0.496032,-0.479759,-0.496354,-0.502155,-0.500221,-0.522779,-0.493615,-0.487976,-0.501349,-0.493132,-0.499899,-0.516817,-0.476536,-0.495388,-0.511822,-0.50296,-0.505055,-0.523745,-0.471702,-0.516656,-0.505861,-0.491521,-0.490232,-0.47847,-0.465902,-0.485237,-0.442217,-0.4369,-0.497643,-0.407897,-0.451562,-0.419981,-0.418531,-0.409508,-0.419176,-0.39114,-0.414181,-0.38824,-0.384856,-0.410959,-0.352632,-0.332491,-0.355048,-0.333941,-0.312189,-0.298172,-0.281254,-0.273359,-0.280126,-0.246129,-0.228405,-0.198275,-0.167661,-0.185868,-0.105789,-0.125769,-0.077915,-0.003314,-0.00702,-0.009598,0.075798,0.088849,0.138797,0.186974,0.195674,0.255129,0.318774,0.293316,0.366305,0.400947,0.442356,0.466525,0.49875,0.53597,0.554177,0.582213,0.609443,0.631839,0.662614,0.687266,0.711435,0.739471,0.756389,0.775885,0.793609,0.800698,0.817455,0.812944,0.809077,0.810366,0.786358,0.765251,0.749299,0.71079,0.673087,0.581568,0.552243,0.530975,0.479898,0.42576,0.32119,0.263186,0.197447,0.137347,0.066614,0.008609,-0.034734,-0.133503,-0.155254,-0.252896,-0.269008,-0.345542,-0.416276,-0.421754,-0.475247,-0.482014,-0.556131,-0.574499,-0.63766,-0.645233,-0.652,-0.669885,-0.688897,-0.666018,-0.692926,-0.699693,-0.695342,-0.69067,-0.667629,-0.687447,-0.685675,-0.645716,-0.67069,-0.611075,-0.599957,-0.607852,-0.574016,-0.55017,-0.57176,-0.539536,-0.519234,-0.532929,-0.480564,-0.505055,-0.470252,-0.446728,-0.458974,-0.430132,-0.43416,-0.399841,-0.403063,-0.381312,-0.389368,-0.388562,-0.360688,-0.389207,-0.353276,-0.362621,-0.353115,-0.351343,-0.332169,-0.344414,-0.352632,-0.325402,-0.353115,-0.317507,-0.34957,-0.332974,-0.334102,-0.322824,-0.337325,-0.335714,-0.305422,-0.307678,-0.305422,-0.310417,-0.30365,-0.27787,-0.316056,-0.276581,-0.306872,-0.296722,-0.300427,-0.288988,-0.289471,-0.291566,-0.314123,-0.278192,-0.282543,-0.298172,-0.284315,-0.310095,-0.298655,-0.283832,-0.283509,-0.278676,-0.299622,-0.256279,-0.303005,-0.274164,-0.301394,-0.266269,-0.267236,-0.264658,-0.285765,-0.262724,-0.273359,-0.28222,-0.24774,-0.3022,-0.263691,-0.234205,-0.269169,-0.258535,-0.259985,-0.266269,-0.272875,-0.241778,-0.293338,-0.264658,-0.261435,-0.277548,-0.246773,-0.286893,-0.256118,-0.258696,-0.262563,-0.278192,-0.25918,-0.272392,-0.256763,-0.247095,-0.285121,-0.258696,-0.260469,-0.260146,-0.232755,-0.257246,-0.261919,-0.228888,-0.264174,-0.226794,-0.222604,-0.257891,-0.233239,-0.263208,-0.248223,-0.214065,-0.242584,-0.247256,-0.244195,-0.235011,-0.243712,-0.216159,-0.235333,-0.2421,-0.201175,-0.249673,-0.220671,-0.222927,-0.215032,-0.214226,-0.186029,-0.2392,-0.173623,-0.228727,-0.227922,-0.164439,-0.236461,-0.180712,-0.172173,-0.172817,-0.198597,-0.167178,-0.18619,-0.165405,-0.170884,-0.205686,-0.149615,-0.179584,-0.1646,-0.16315,-0.153321,-0.152032,-0.191991,-0.152354,-0.162827,-0.162183,-0.1675,-0.175073,-0.163794,-0.175717,-0.159605,-0.155254,-0.174267,-0.165405,-0.155416,-0.179906,-0.137531,-0.162505,-0.199241,-0.147359,-0.19763,-0.166533,-0.156221,-0.204881,-0.174589,-0.153321,-0.180873,-0.166372,-0.157027,-0.198758,-0.149293,-0.172495,-0.197147,-0.143815,-0.162022,-0.167661,-0.158316,-0.159283,-0.136081,-0.148648,-0.165728,-0.142042,-0.165889,-0.179584,-0.152676,-0.165566,-0.150582,-0.16315,-0.158477,-0.152193,-0.151388,-0.154127,-0.163955,-0.159121,-0.169433,-0.145748,-0.161538,-0.173462,-0.169111,-0.163794,-0.181195,-0.19473,-0.180712,-0.184096,-0.186513,-0.190057,-0.191346,-0.198919,-0.201819,-0.198275,-0.206975,-0.195536,-0.193763,-0.215837,-0.214387,-0.230499,-0.218254,-0.228888,-0.220349,-0.231144,-0.243389,-0.225344,-0.234528,-0.238072,-0.231627,-0.226633,-0.256118,-0.239845,-0.262402,-0.240811,-0.251768,-0.276581,-0.278353,-0.241778,-0.241456,-0.269653,-0.229372,-0.304939,-0.261596,-0.270619,-0.276581,-0.265786,-0.29366,-0.25644,-0.271908,-0.282865,-0.292693,-0.296883,-0.293177,-0.297366,-0.276581,-0.308806,-0.279159,-0.32943,-0.288021,-0.33668,-0.313801,-0.305906,-0.304617,-0.286248,-0.358754,-0.320568,-0.306389,-0.330074,-0.323468,-0.315573,-0.330396,-0.307678,-0.319118,-0.316701,-0.324274,-0.34957,-0.30075,-0.324113,-0.335875,-0.363427,-0.365844,-0.334586,-0.333458,-0.370194,-0.334263,-0.372933,-0.407414,-0.34812,-0.377122,-0.392107,-0.372128,-0.411281,-0.398713,-0.393718,-0.424171,-0.406125,-0.392752,-0.432388,-0.420787,-0.42546,-0.469124,-0.425943,-0.463163,-0.467191,-0.4427,-0.462357,-0.472186,-0.490715,-0.45559,-0.524229,-0.509889,-0.540986,-0.52584,-0.535185,-0.543403,-0.570632,-0.559837,-0.57176,-0.579817,-0.574177,-0.607691,-0.581589,-0.641044,-0.664084,-0.618003,-0.663923,-0.674557,-0.67069,-0.66344,-0.694698,-0.697115,-0.70791,-0.704527,-0.728212,-0.743196,-0.72934,-0.760759,-0.74223,-0.749158,-0.768332,-0.772521,-0.767687,-0.781866,-0.795239,-0.754153,-0.803457,-0.793145,-0.795723,-0.795562,-0.811674,-0.819408,-0.827947,-0.837132,-0.825531,-0.840676,-0.824564,-0.856628,-0.846155,-0.850827,-0.858722,-0.861784,-0.856628,-0.871773,-0.867745,-0.875479,-0.874835,-0.879507,-0.879185,-0.878057,-0.884824,-0.878057,-0.882891,-0.892397,-0.882407,-0.898681,-0.891108,-0.888369,-0.902226,-0.903031,-0.900614,-0.906737,-0.917855,-0.910443,-0.919949,-0.902226,-0.930261,-0.912699,-0.922688,-0.932517,-0.919949,-0.95443,-0.942829,-0.958297,-0.97167,-0.959908,-0.979243,-0.993261,-0.974409,-0.989071,-1.013562,-0.996483,-1.015657,-1.017268,-1.019524,-1.032092,-1.042887,-1.048043,-1.055132,-1.053038,-1.041115,-1.064155,-1.068344,-1.063672,-1.063188,-1.05771,-1.069311,-1.081396,-1.081879,-1.063672,-1.088324,-1.082846,-1.0706,-1.098475,-1.077045,-1.100086,-1.103953,-1.100569,-1.108948,-1.102825,-1.124416,-1.126349,-1.129733,-1.137467,-1.144395,-1.14085,-1.150518,-1.149873,-1.148906,-1.150679,-1.146167,-1.151968,-1.141656,-1.148906,-1.158091,-1.16518,-1.15519,-1.158091,-1.17807,-1.160185,-1.17517,-1.187576,-1.180326,-1.175492,-1.174847,-1.165502,-1.178231,-1.176459,-1.167113,-1.19386,-1.173558,-1.182742,-1.175653,-1.175814,-1.178714,-1.187093,-1.17372,-1.162119,-1.180487,-1.167919,-1.167919,-1.184837,-1.169853,-1.17372,-1.170014,-1.157607,-1.170014,-1.15229,-1.157607,-1.16228,-1.136661,-1.128605,-1.145684,-1.145845,-1.147295,-1.124738,-1.144717,-1.146973,-1.164374,-1.153579,-1.161152,-1.15938,-1.146167,-1.149551,-1.150357,-1.170658,-1.145684,-1.150034,-1.149551,-1.167436,-1.152129,-1.143267,-1.161796,-1.136178,-1.158091,-1.132311,-1.123288,-1.11926,-1.111526,-1.109914,-1.112976,-1.104114,-1.094447,-1.099603,-1.095574,-1.071084,-1.080912,-1.055938,-1.07914,-1.069311,-1.05046,-1.078656,-1.06915,-1.066572,-1.078818,-1.069633,-1.096702,-1.095091,-1.067217,-1.095413,-1.097186,-1.094769,-1.077206,-1.125866,-1.105081,-1.106692,-1.133922,-1.108464,-1.120549,-1.124899,-1.127155,-1.124093,-1.136983,-1.125705,-1.114265,-1.127316,-1.093802,-1.1365,-1.107336,-1.124738,-1.099441,-1.097347,-1.088646,-1.09493,-1.092996,-1.08349,-1.081557,-1.072534,-1.090257,-1.039503,-1.063027,-1.046109,-1.039664,-1.02758,-1.019685,-0.98311,-1.000189,-0.985366,-0.967964,-0.96168,-0.984399,-0.95443,-0.963936,-0.946696,-0.960069,-0.930745,-0.932195,-0.918016,-0.918983,-0.91141,-0.910443,-0.930745,-0.887241,-0.913182,-0.900131,-0.902387,-0.903676,-0.87129,-0.860172,-0.881441,-0.870001,-0.895136,-0.906898,-0.846316,-0.868067,-0.836648,-0.842126,-0.86275,-0.855983,-0.850666,-0.849377,-0.836004,-0.82827,-0.849216,-0.828914,-0.802812,-0.808613,-0.824403,-0.820858,-0.803296,-0.811029,-0.797817,-0.77236,-0.796045,-0.780255,-0.81973,-0.793467,-0.787183,-0.7954,-0.786539,-0.785411,-0.784766,-0.763659,-0.774938,-0.7925,-0.774454,-0.800718,-0.763337,-0.791533,-0.7867,-0.76092,-0.768654,-0.780577,-0.743357,-0.761564,-0.773326,-0.724828,-0.77236,-0.726439,-0.705816,-0.744808,-0.69067,-0.741907,-0.69357,-0.684869,-0.678424,-0.665051,-0.661506,-0.669724,-0.653289,-0.637982,-0.637499,-0.636532,-0.675202,-0.635888,-0.646683,-0.614297,-0.650711,-0.632826,-0.608658,-0.67633,-0.637982,-0.589645,-0.638788,-0.619292,-0.629926,-0.626704,-0.61897,-0.622676,-0.637177,-0.594962,-0.610591,-0.630893,-0.611719,-0.631537,-0.621548,-0.577239,-0.608335,-0.614942,-0.590128,-0.618164,-0.555003,-0.556937,-0.611397,-0.544208,-0.595768,-0.543403,-0.557098,-0.554842,-0.552103,-0.550814,-0.541791,-0.514239,-0.555326,-0.541952,-0.498449,-0.545658,-0.521006,-0.48282,-0.505861,-0.506666,-0.509728,-0.49426,-0.500382,-0.484753,-0.510694,-0.493454,-0.453012,-0.492971,-0.459457,-0.431582,-0.452045,-0.4456,-0.410959,-0.485237,-0.383729,-0.426265,-0.480081,-0.39968,-0.420304,-0.412248,-0.381312,-0.411603,-0.391946,-0.400485,-0.421754,-0.396457,-0.398069,-0.41257,-0.37535,-0.439477,-0.405803,-0.422398,-0.407253,-0.413698,-0.425299,-0.419015,-0.424654,-0.403547,-0.417726,-0.444472,-0.424332,-0.447211,-0.420304,-0.435449,-0.418048,-0.433033,-0.417565,-0.415148,-0.40548,-0.395491,-0.440605,-0.40967,-0.442861,-0.42127,-0.41257,-0.417565,-0.407897,-0.421915,-0.423365,-0.413698,-0.436094,-0.423043,-0.372611,-0.393396,-0.419498,-0.397907,-0.404997,-0.423204,-0.381312,-0.409992,-0.420465,-0.392107,-0.394524,-0.387273,-0.390496,-0.435772,-0.387757,-0.400163,-0.378089,-0.391463,-0.408058,-0.411603,-0.389529,-0.367616,-0.416114,-0.387112,-0.416759,-0.387112,-0.402419,-0.403547,-0.415309,-0.41112,-0.414503,-0.404675,-0.459779,-0.414342,-0.421593,-0.442217,-0.417726,-0.427877,-0.438511,-0.412409,-0.443667,-0.417242,-0.432066,-0.428199,-0.410959,-0.45124,-0.431421,-0.455751,-0.427393,-0.436416,-0.414664,-0.438994,-0.434966,-0.449306,-0.452529,-0.43835,-0.474925,-0.423687,-0.442055,-0.432549,-0.460746,-0.458974,-0.428199,-0.430938,-0.422559,-0.422559,-0.450434,-0.45269,-0.39968,-0.439961,-0.462035,-0.441411,-0.445117,-0.443506,-0.448984,-0.435772,-0.478308,-0.403547,-0.473475,-0.47573,-0.422882,-0.473636,-0.45994,-0.444633,-0.462518,-0.476214,-0.439639,-0.467835,-0.431744,-0.456396,-0.489426,-0.467191,-0.465418,-0.480886,-0.479275,-0.486042,-0.486848,-0.480081,-0.473958,-0.464291,-0.479114,-0.500866,-0.457523,-0.463485,-0.478147,-0.49007,-0.491198,-0.47847,-0.48717,-0.483625,-0.503766,-0.49007,-0.511339,-0.524229,-0.489426,-0.521973,-0.52149,-0.530351,-0.50441,-0.471863,-0.48862,-0.530996,-0.486042,-0.476214,-0.520684,-0.481853,-0.474119,-0.509083,-0.489265,-0.493776,-0.493293,-0.474925,-0.482175,-0.459457,-0.475247,-0.494099,-0.433677,-0.433838,-0.443828,-0.422398,-0.45269,-0.443022,-0.404514,-0.421915,-0.460585,-0.40548,-0.4427,-0.439639,-0.436094,-0.4369,-0.406125,-0.449628,-0.471541,-0.421593,-0.428038,-0.463807,-0.450434,-0.464774,-0.484753,-0.442217,-0.462679,-0.441411,-0.484592,-0.474764,-0.483303,-0.501188,-0.466546,-0.472991,-0.486042,-0.496838,-0.447695,-0.477825,-0.472186,-0.480403,-0.46703,-0.482498,-0.449306,-0.473152,-0.480886,-0.487492,-0.43271,-0.453334,-0.451401,-0.457201,-0.434483,-0.417403,-0.449628,-0.451078,-0.433838,-0.44125,-0.392752,-0.436416,-0.438672,-0.396296,-0.430132,-0.400485,-0.41547,-0.452529,-0.421915,-0.40967,-0.416759,-0.416114,-0.417726,-0.459296,-0.405641,-0.452851,-0.442861,-0.448017,-0.471219,-0.4485,-0.47573,-0.467191,-0.509244,-0.466869,-0.509244,-0.496354,-0.463485,-0.532607,-0.505055,-0.519717,-0.474119,-0.504733,-0.497643,-0.521329,-0.50151,-0.522295,-0.538247,-0.500705,-0.53873,-0.508116,-0.517945,-0.499738,-0.52584,-0.492487,-0.496032,-0.536796,-0.513917,-0.511822,-0.486848,-0.507955,-0.488459,-0.495549,-0.54872,-0.482659,-0.500705,-0.516978,-0.495871,-0.505538,-0.523906,-0.502316,-0.522779,-0.521329,-0.483464,-0.513111,-0.52584,-0.511822,-0.50006,-0.515689,-0.47992,-0.493293,-0.538085,-0.506022,-0.5115,-0.513111,-0.529224,-0.512789,-0.516817,-0.499255,-0.518428,-0.524712,-0.529062,-0.554198,-0.484109,-0.552103,-0.524068,-0.509405,-0.53019,-0.524873,-0.507955,-0.558548,-0.529385,-0.510533,-0.559193,-0.498127,-0.556937,-0.549525,-0.512306,-0.558226,-0.549847,-0.55162,-0.553392,-0.572888,-0.545336,-0.599796,-0.55887,-0.582878,-0.56886,-0.570149,-0.609141,-0.57176,-0.574338,-0.578044,-0.554681,-0.535346,-0.584811,-0.574016,-0.553876,-0.584489,-0.546464,-0.587873,-0.57031,-0.576272,-0.55452,-0.542436,-0.575788,-0.540019,-0.56886,-0.558065,-0.562737,-0.56306,-0.590612,-0.593512,-0.609463,-0.564671,-0.588517,-0.615103,-0.559032,-0.604952,-0.584973,-0.594318,-0.644427,-0.612686,-0.624126,-0.633632,-0.61752,-0.595446,-0.614458,-0.611719,-0.621064,-0.627509,-0.594318,-0.627026,-0.582717,-0.598829,-0.573694,-0.596251,-0.577561,-0.604146,-0.586423,-0.570794,-0.606724,-0.597057,-0.586906,-0.59754,-0.616714,-0.610591,-0.590612,-0.601246,-0.635243,-0.589162,-0.588678,-0.626865,-0.590451,-0.632343,-0.592384,-0.607691,-0.625254,-0.600279,-0.609786,-0.588195,-0.586262,-0.580139,-0.566765,-0.553231,-0.54872,-0.565315,-0.512144,-0.526001,-0.499738,-0.485398,-0.461229,-0.488137,-0.448178,-0.430616,-0.4485,-0.382117,-0.396296,-0.395974,-0.357143,-0.339742,-0.326852,-0.291566,-0.311867,-0.28931,-0.286248,-0.255796,-0.173945,-0.19908,-0.180068,-0.12738,-0.128186,-0.05858,-0.053585,-0.008631,0.040673,0.088043,0.111084,0.15636,0.216621,0.217265,0.246267,0.34262,0.363727,0.398047,0.436717,0.46862,0.504067,0.532264,0.555144,0.584629,0.602837,0.624427,0.644568,0.666159,0.681788,0.697095,0.707729,0.71498,0.717235,0.711757,0.712724,0.695806,0.677115,0.650368,0.60042,0.585918,0.539676,0.47007,0.426083,0.358249,0.322802,0.286549,0.219521,0.13058,0.07757,0.002808,-0.072437,-0.098861,-0.170561,-0.261274,-0.264819,-0.370194,-0.413375,-0.430293,-0.54872,-0.54598,-0.613169,-0.643299,-0.695504,-0.714838,-0.741424,-0.762531,-0.787344,-0.815863,-0.827786,-0.818763,-0.83407,-0.849055,-0.842449,-0.851794,-0.841965,-0.840676,-0.833587,-0.797173,-0.799429,-0.808613,-0.795562,-0.798945,-0.770104,-0.741746,-0.731756,-0.711455,-0.692764,-0.703399,-0.669724,-0.662957,-0.675524,-0.607691,-0.666662,-0.609947,-0.606402,-0.598507,-0.600602,-0.572566,-0.563382,-0.575627,-0.561287,-0.576594,-0.535991,-0.563704,-0.561771,-0.560159,-0.544853,-0.558226,-0.536958,-0.56306,-0.550653,-0.548397,-0.584167,-0.566604,-0.547431,-0.586584,-0.561126,-0.566443,-0.567893,-0.546947,-0.586745,-0.566604,-0.556454,-0.553231,-0.582556,-0.572083,-0.58175,-0.572405,-0.566604,-0.562576,-0.595607,-0.576433,-0.581428,-0.527935,-0.572727,-0.580622,-0.555648,-0.550331,-0.551459,-0.570149,-0.580622,-0.574661,-0.565154,-0.55017,-0.593512,-0.591256,-0.598346,-0.589001,-0.562093,-0.596573,-0.56741,-0.568216,-0.564993,-0.544047,-0.565477,-0.54453,-0.558226,-0.554359,-0.563865,-0.530513,-0.55452,-0.536635,-0.537119,-0.539213,-0.532768,-0.53438,-0.501349,-0.517462,-0.500382,-0.504894,-0.492004,-0.522295,-0.483625,-0.485398,-0.494099,-0.478147,-0.47992,-0.468802,-0.468319,-0.480242,-0.484914,-0.451723,-0.485881,-0.464129,-0.453979,-0.475892,-0.456718,-0.469285,-0.451723,-0.489587,-0.420465,-0.44705,-0.491521,-0.432871,-0.472508,-0.448823,-0.458329,-0.452367,-0.452851,-0.42546,-0.458007,-0.42836,-0.467191,-0.473314,-0.439155,-0.43416,-0.465902,-0.445117,-0.44705,-0.454623,-0.442378,-0.443828,-0.460424,-0.434805,-0.467674,-0.49716,-0.424493,-0.453495,-0.448662,-0.456396,-0.463485,-0.436577,-0.426749,-0.426265,-0.412731,-0.390496,-0.42546,-0.385823,-0.441572,-0.392429,-0.393074,-0.383245,-0.375995,-0.404836,-0.394363,-0.395974,-0.385984,-0.380345,-0.388562,-0.37535,-0.36536,-0.348281,-0.337647,-0.343286,-0.338292,-0.328785,-0.332974,-0.314284,-0.321535,-0.324274,-0.292532,-0.329269,-0.311706,-0.305906,-0.299783,-0.287054,-0.300266,-0.312995,-0.3022,-0.301555,-0.299138,-0.266269,-0.297688,-0.287215,-0.28931,-0.283187,-0.28077,-0.282543,-0.300427,-0.269492,-0.26498,-0.285121,-0.257407,-0.296077,-0.290921,-0.258374,-0.273359,-0.297205,-0.261113,-0.256602,-0.272553,-0.263369,-0.254185,-0.282865,-0.232433,-0.250318,-0.243551,-0.244356,-0.229533,-0.227116,-0.241939,-0.245323,-0.174751,-0.192474,-0.242262,-0.181679,-0.210842,-0.202464,-0.182484,-0.15606,-0.175234,-0.177651,-0.194408,-0.13318,-0.17185,-0.155577,-0.147198,-0.18329,-0.161861,-0.120129,-0.162344,-0.124641,-0.124319,-0.126574,-0.118518,-0.112879,-0.11739,-0.106917,-0.081298,-0.100794,-0.085488,-0.079526,-0.060675,-0.073403,-0.053907,-0.080815,-0.047623,-0.017171,-0.057291,-0.013465,-0.036184,-0.044723,-0.004281,-0.003637,-0.01701,0.00442,-0.006376,0.017632,0.011993,-0.005892,0.021015,0.014248,0.024399,0.032778,0.027299,0.025849,0.023755,0.026333,0.02311,0.024882,0.063713,0.038578,0.064358,0.073864,0.070642,0.055013,0.082082,0.052918,0.071447,0.087882,0.082243,0.073381,0.057268,0.10625,0.079181,0.082726,0.11914,0.086432,0.113179,0.09481,0.077409,0.099322,0.110762,0.079343,0.13058,0.089332,0.110601,0.098516,0.074348,0.091749,0.103833,0.107862,0.067419,0.094972,0.11334,0.095938,0.111084,0.055174,0.07177,0.095133,0.086754,0.122524,0.070642,0.045184,0.086432,0.108989,0.078859,0.120429,0.060491,0.074992,0.121235,0.061458,0.071447,0.09755,0.079343,0.055496,0.062263,0.009898,0.050179,0.043573,0.026977,0.015537,0.018599,-0.012015,0.021177,0.005709,-0.012659,-0.010887,-0.038117,-0.034734,-0.039406,-0.033283,-0.098861,-0.078237,-0.05713,-0.126735,-0.098055,-0.100472,-0.113846,-0.135597,-0.143976,-0.093383,-0.137853,-0.169595,-0.182484,-0.179101,-0.190863,-0.175395,-0.221315,-0.211809,-0.222604,-0.249834,-0.224055,-0.27642,-0.287699,-0.287054,-0.325079,-0.313317,-0.326691,-0.364877,-0.353598,-0.370355,-0.432066,-0.382117,-0.404514,-0.427071,-0.447856,-0.471541,-0.473152,-0.487492,-0.496354,-0.540341,-0.518912,-0.560965,-0.599474,-0.5774,-0.622192,-0.605274,-0.647166,-0.652,-0.700821,-0.67488,-0.752058,-0.728373,-0.734334,-0.785572,-0.769621,-0.7954,-0.776227,-0.820052,-0.831009,-0.83971,-0.829559,-0.849538,-0.868067,-0.868067,-0.87709,-0.879668,-0.896264,-0.902548,-0.910926,-0.923494,-0.920755,-0.926072,-0.923333,-0.94589,-0.943796,-0.95733,-0.954108,-0.950563,-0.95878,-0.960714,-0.952496,-0.955397,-0.947501,-0.951046,-0.969898,-0.955074,-0.962164,-0.975537,-0.949757,-0.963453,-0.950241,-0.954108,-0.968931,-0.950241,-0.968931,-0.959102,-0.962808,-0.958941,-0.978437,-0.969092,-0.987138,-0.991166,-0.976504,-1.000511,-1.01324,-1.015979,-1.026936,-1.03757,-1.033219,-1.058355,-1.061738,-1.050137,-1.068183,-1.081073,-1.081718,-1.095897,-1.096058,-1.080429,-1.106692,-1.090741,-1.106209,-1.10492,-1.105242,-1.121999,-1.114104,-1.114748,-1.123771,-1.115393,-1.120065,-1.138917,-1.126027,-1.128605,-1.136661,-1.120388,-1.145201,-1.146006,-1.150679,-1.159218,-1.149229,-1.147617,-1.15084,-1.152451,-1.167597,-1.149229,-1.160991,-1.152935,-1.157607,-1.153579,-1.152612,-1.147295,-1.155674,-1.155351,-1.150034,-1.151323,-1.161474,-1.152773,-1.150195,-1.158574,-1.153257,-1.151968,-1.159218,-1.151968,-1.154868,-1.160668,-1.164858,-1.172592,-1.181453,-1.159541,-1.170175,-1.184193,-1.164697,-1.178876,-1.170336,-1.172431,-1.174525,-1.179198,-1.181937,-1.184515,-1.167113,-1.170175,-1.187093,-1.16808,-1.192088,-1.181615,-1.17662,-1.177103,-1.181453,-1.182581,-1.187093,-1.192249,-1.160507,-1.188543,-1.180326,-1.185965,-1.191121,-1.188543,-1.174203,-1.195632,-1.186932,-1.189671,-1.197244,-1.178553,-1.19531,-1.193216,-1.197888,-1.194343,-1.198694,-1.19531,-1.202077,-1.198855,-1.199499,-1.211423,-1.174847,-1.200305,-1.202077,-1.192088,-1.205783,-1.199822,-1.180326,-1.195149,-1.18097,-1.186126,-1.192088,-1.189832,-1.180487,-1.174525,-1.145362,-1.158413,-1.174203,-1.127638,-1.158574,-1.153096,-1.124416,-1.130538,-1.15519,-1.117165,-1.124416,-1.117971,-1.111848,-1.135694,-1.126188,-1.105886,-1.113137,-1.13795,-1.091546,-1.133277,-1.101858,-1.117487,-1.116843,-1.130699,-1.10492,-1.136178,-1.142623,-1.113943,-1.142461,-1.122965,-1.128605,-1.151484,-1.123771,-1.131505,-1.128605,-1.153418,-1.152451,-1.143106,-1.122482,-1.151162,-1.128444,-1.134405,-1.153579,-1.134244,-1.144073,-1.1336,-1.121838,-1.112976,-1.124899,-1.10637,-1.112331,-1.079623,-1.087679,-1.086713,-1.056099,-1.096058,-1.041598,-1.039987,-1.061577,-1.021619,-1.032575,-1.045787,-1.005345,-1.016301,-1.007117,-0.990522,-0.961358,-0.964742,-0.950885,-0.968286,-0.933484,-0.931872,-0.918821,-0.953141,-0.876285,-0.898198,-0.911893,-0.869195,-0.944924,-0.907704,-0.897231,-0.906898,-0.888047,-0.901903,-0.924783,-0.92011,-0.895458,-0.912538,-0.870806,-0.906254,-0.891269,-0.880313,-0.869356,-0.889175,-0.886113,-0.876124,-0.89997,-0.862911,-0.905287,-0.88273,-0.851955,-0.891753,-0.865006,-0.896586,-0.862911,-0.869195,-0.870162,-0.870645,-0.863395,-0.863878,-0.851633,-0.834231,-0.865167,-0.859528,-0.907865,-0.858722,-0.842932,-0.858561,-0.870323,-0.884502,-0.877251,-0.884502,-0.848732,-0.864039,-0.842126,-0.866778,-0.867262,-0.881441,-0.852761,-0.866134,-0.878057,-0.831653,-0.898681,-0.85695,-0.852599,-0.901098,-0.858078,-0.882891,-0.881924,-0.856144,-0.863073,-0.863717,-0.816991,-0.842771,-0.860978,-0.824403,-0.8642,-0.816024,-0.811513,-0.821664,-0.816024,-0.773165,-0.800234,-0.781866,-0.764787,-0.807485,-0.740941,-0.778805,-0.75947,-0.728212,-0.748191,-0.731273,-0.722089,-0.716289,-0.708877,-0.702432,-0.698082,-0.679713,-0.681969,-0.672785,-0.659573,-0.651033,-0.643299,-0.658123,-0.592384,-0.635082,-0.627831,-0.646361,-0.651194,-0.607369,-0.647489,-0.618486,-0.628959,-0.622353,-0.612364,-0.608013,-0.641044,-0.596896,-0.641849,-0.629604,-0.604307,-0.656028,-0.607852,-0.629443,-0.628476,-0.618486,-0.620742,-0.652645,-0.618486,-0.615264,-0.632826,-0.65345,-0.645394,-0.656834,-0.621387,-0.598668,-0.645555,-0.645394,-0.604307,-0.604952,-0.623481,-0.637016,-0.638305,-0.613653,-0.646522,-0.626704,-0.631698,-0.635888,-0.622514,-0.629926,-0.62622,-0.616875,-0.620742,-0.623642,-0.582717,-0.621548,-0.599957,-0.607208,-0.596573,-0.604469,-0.622998,-0.598829,-0.603824,-0.61188,-0.610591,-0.592706,-0.578205,-0.608497,-0.578205,-0.573372,-0.572727,-0.599474,-0.604469,-0.584811,-0.56161,-0.58175,-0.568216,-0.57031,-0.591095,-0.557904,-0.560643,-0.579494,-0.54872,-0.549042,-0.581911,-0.534863,-0.552425,-0.540502,-0.536796,-0.560643,-0.564993,-0.539536,-0.566121,-0.557743,-0.550814,-0.562576,-0.581911,-0.535024,-0.55887,-0.561448,-0.564188,-0.573372,-0.553231,-0.546947,-0.536635,-0.551298,-0.539052,-0.56306,-0.557259,-0.535669,-0.560965,-0.511661,-0.557581,-0.55017,-0.56451,-0.548881,-0.560159,-0.52874,-0.562415,-0.575466,-0.523584,-0.568216,-0.542758,-0.546464,-0.583039,-0.562254,-0.559515,-0.568699,-0.546303,-0.575144,-0.566282,-0.525679,-0.566765,-0.551136,-0.539213,-0.553231,-0.523584,-0.523101,-0.538247,-0.503283,-0.541791,-0.516495,-0.515367,-0.511983,-0.525518,-0.506827,-0.518751,-0.483303,-0.486687,-0.497321,-0.498771,-0.466385,-0.49007,-0.488298,-0.488943,-0.482659,-0.449306,-0.503766,-0.50151,-0.50441,-0.48862,-0.487815,-0.493776,-0.506505,-0.506666,-0.473152,-0.504088,-0.501027,-0.456557,-0.510211,-0.474441,-0.482981,-0.496999,-0.484592,-0.468319,-0.481047,-0.45849,-0.464291,-0.483142,-0.460907,-0.474603,-0.443828,-0.465096,-0.46993,-0.436577,-0.465418,-0.483787,-0.446245,-0.46284,-0.470574,-0.438511,-0.454462,-0.440444,-0.447373,-0.451401,-0.418209,-0.453012,-0.421915,-0.456557,-0.422398,-0.418209,-0.430293,-0.411281,-0.442861,-0.396135,-0.397746,-0.427715,-0.392429,-0.377122,-0.407897,-0.373255,-0.380667,-0.384373,-0.33668,-0.37245,-0.363588,-0.350698,-0.375995,-0.350537,-0.320568,-0.33523,-0.342481,-0.316862,-0.356337,-0.317184,-0.316056,-0.339097,-0.316862,-0.322018,-0.335714,-0.32089,-0.318151,-0.384051,-0.321212,-0.302039,-0.32234,-0.290921,-0.310417,-0.344092,-0.308806,-0.325563,-0.335875,-0.293177,-0.334263,-0.331524,-0.291243,-0.335714,-0.298977,-0.334263,-0.327174,-0.343448,-0.313801,-0.329107,-0.295433,-0.309289,-0.294305,-0.267236,-0.312512,-0.242745,-0.284154,-0.303972,-0.289632,-0.288504,-0.288182,-0.240973,-0.267397,-0.262563,-0.257407,-0.28786,-0.239845,-0.274325,-0.26788,-0.246451,-0.29366,-0.276098,-0.240328,-0.271425,-0.272231,-0.245484,-0.277387,-0.258696,-0.227116,-0.259502,-0.255151,-0.271103,-0.278676,-0.26208,-0.255796,-0.248545,-0.235172,-0.256118,-0.264336,-0.22051,-0.25354,-0.275614,-0.256924,-0.272714,-0.262563,-0.248707,-0.26208,-0.260791,-0.245645,-0.255313,-0.234366,-0.255313,-0.261113,-0.234205,-0.268525,-0.244195,-0.268364,-0.229855,-0.262563,-0.22341,-0.230822,-0.287215,-0.239845,-0.234205,-0.23775,-0.271908,-0.229049,-0.264013,-0.211326,-0.245001,-0.22196,-0.25918,-0.276742,-0.229694,-0.272553,-0.233561,-0.220832,-0.286248,-0.28222,-0.247256,-0.254346,-0.263208,-0.266914,-0.294305,-0.255635,-0.261596,-0.273197,-0.257085,-0.267236,-0.262563,-0.27932,-0.261113,-0.266108,-0.270781,-0.274809,-0.27207,-0.254024,-0.257729,-0.278998,-0.228727,-0.259502,-0.262724,-0.218093,-0.261113,-0.246612,-0.234689,-0.258213,-0.243228,-0.237911,-0.249512,-0.222282,-0.24065,-0.233722,-0.215676,-0.268041,-0.230016,-0.225827,-0.24919,-0.203592,-0.256924,-0.205686,-0.231305,-0.251607,-0.228727,-0.222927,-0.236944,-0.201819,-0.244678,-0.274648,-0.241295,-0.233722,-0.211487,-0.216159,-0.213581,-0.254024,-0.232272,-0.225827,-0.221799,-0.229372,-0.238878,-0.234689,-0.211165,-0.254829,-0.251285,-0.271747,-0.269169,-0.225182,-0.254346,-0.261113,-0.258374,-0.283509,-0.282704,-0.252735,-0.287699,-0.276903,-0.260791,-0.261919,-0.26498,-0.268364,-0.238395,-0.268364,-0.282381,-0.264174,-0.262402,-0.265302,-0.263208,-0.273842,-0.291888,-0.264819,-0.286087,-0.281415,-0.300105,-0.272231,-0.265947,-0.332974,-0.258374,-0.297044,-0.304294,-0.274003,-0.318634,-0.306228,-0.307195,-0.327013,-0.301394,-0.310095,-0.324435,-0.307195,-0.347637,-0.33813,-0.326368,-0.35956,-0.369389,-0.349409,-0.321535,-0.351343,-0.334586,-0.330558,-0.34957,-0.336841,-0.377445,-0.300911,-0.333941,-0.305261,-0.284798,-0.292532,-0.3051,-0.248707,-0.255474,-0.24629,-0.249029,-0.27352,-0.209231,-0.203431,-0.219704,-0.161699,-0.187963,-0.174751,-0.104661,-0.146876,-0.123674,-0.097411,-0.086777,-0.039245,0.014732,-0.011048,0.01586,0.026655,0.076442,0.113179,0.138314,0.136864,0.173761,0.215976,0.21517,0.270597,0.280909,0.334242,0.362277,0.413676,0.433978,0.460241,0.492627,0.505678,0.531942,0.558849,0.579473,0.60477,0.629583,0.651819,0.678888,0.699189,0.720458,0.745593,0.763478,0.780235,0.790225,0.796025,0.808916,0.801987,0.802793,0.796831,0.767829,0.755583,0.728353,0.695322,0.634739,0.611376,0.548376,0.514379,0.463464,0.401914,0.333919,0.244173,0.181334,0.131708,0.061619,0.011993,-0.052779,-0.13173,-0.160088,-0.259824,-0.28786,-0.362138,-0.39678,-0.472669,-0.507633,-0.511822,-0.585295,-0.606724,-0.655061,-0.67488,-0.698404,-0.722572,-0.738201,-0.722089,-0.773165,-0.771071,-0.777999,-0.776388,-0.766882,-0.760275,-0.782027,-0.772682,-0.755281,-0.749641,-0.736429,-0.765431,-0.733529,-0.695987,-0.719833,-0.698404,-0.672946,-0.683903,-0.657478,-0.682775,-0.670852,-0.65055,-0.639432,-0.626059,-0.643622,-0.614136,-0.626381,-0.596573,-0.616231,-0.615908,-0.60753,-0.615103,-0.61897,-0.596412,-0.62767,-0.616231,-0.634276,-0.639432,-0.62332,-0.60753,-0.633954,-0.626865,-0.62187,-0.650067,-0.646522,-0.626543,-0.643299,-0.637016,-0.655384,-0.668435,-0.658767,-0.658767,-0.647328,-0.66344,-0.646361,-0.65345,-0.611075,-0.645394,-0.660217,-0.621709,-0.645877,-0.630248,-0.652806,-0.661184,-0.633632,-0.656512,-0.635565,-0.637177,-0.675685,-0.684064,-0.653289,-0.692442,-0.657639,-0.656995,-0.697759,-0.688736,-0.67343,-0.690186,-0.666501,-0.684708,-0.669079,-0.693892,-0.70211,-0.680358,-0.68777,-0.689542,-0.707105,-0.701949,-0.697276,-0.708071,-0.714355,-0.713388,-0.714033,-0.721606,-0.73659,-0.734334,-0.777032,-0.759148,-0.757375,-0.763337,-0.739329,-0.747063,-0.810868,-0.756247,-0.752058,-0.80249,-0.763337,-0.784122,-0.816508,-0.797817,-0.817152,-0.811835,-0.801845,-0.807968,-0.807968,-0.807807,-0.804423,-0.782027,-0.80394,-0.829236,-0.799751,-0.804907,-0.812641,-0.783638,-0.814252,-0.829236,-0.818925,-0.81973,-0.815219,-0.806679,-0.828914,-0.81683,-0.836487,-0.840354,-0.820052,-0.830042,-0.84841,-0.843093,-0.84116,-0.855983,-0.819408,-0.865167,-0.82827,-0.850827,-0.856628,-0.859044,-0.857433,-0.856466,-0.853083,-0.84696,-0.868551,-0.839548,-0.856466,-0.888691,-0.871773,-0.858561,-0.89562,-0.866617,-0.879829,-0.895942,-0.902065,-0.893525,-0.911087,-0.878863,-0.912699,-0.898359,-0.902709,-0.914954,-0.908509,-0.911249,-0.915921,-0.912376,-0.901581,-0.929617,-0.912376,-0.923172,-0.922688,-0.93155,-0.929456,-0.933484,-0.929294,-0.924622,-0.9301,-0.929456,-0.926555,-0.947663,-0.938479,-0.934612,-0.920755,-0.940412,-0.931228,-0.946212,-0.938479,-0.943957,-0.935739,-0.942668,-0.95588,-0.929133,-0.963453,-0.941862,-0.952496,-0.968125,-0.967159,-0.968448,-0.975537,-0.965708,-0.981982,-0.979887,-0.96442,-0.988105,-0.987299,-0.991649,-0.979726,-1.004217,-1.000672,-1.003089,-1.019363,-1.014046,-1.017429,-1.015174,-1.012918,-1.019524,-1.015818,-1.010179,-1.025969,-1.026452,-1.022585,-1.041276,-1.039664,-1.035959,-1.055616,-1.052877,-1.048526,-1.054649,-1.063994,-1.062061,-1.062383,-1.076078,-1.069633,-1.081073,-1.088485,-1.100569,-1.097508,-1.09493,-1.107175,-1.116843,-1.11781,-1.119743,-1.121193,-1.116521,-1.1365,-1.136178,-1.135855,-1.133761,-1.137467,-1.144556,-1.140045,-1.14649,-1.141656,-1.140528,-1.146651,-1.15374,-1.148584,-1.150679,-1.158091,-1.134728,-1.137144,-1.126349,-1.136017,-1.136983,-1.119099,-1.105403,-1.117326,-1.08784,-1.10782,-1.104114,-1.030641,-1.0735,-1.060449,-1.018396,-1.016463,-1.019846,-0.958136,-0.984399,-0.979082,-0.946051,-0.967159,-0.879507,-0.884341,-0.890947,-0.845832,-0.850827,-0.862106,-0.829398,-0.804746,-0.804101,-0.772521,-0.774777,-0.770265,-0.745291,-0.754636,-0.704688,-0.701143,-0.67923,-0.71226,-0.668274,-0.665535,-0.662151,-0.639432,-0.684064,-0.637338,-0.657639,-0.631054,-0.637821,-0.626059,-0.632504,-0.610269,-0.612364,-0.625415,-0.587712,-0.629443,-0.563704,-0.617197,-0.608174,-0.601891,-0.592545,-0.593673,-0.585134,-0.623481,-0.593995,-0.568054,-0.61752,-0.57176,-0.577561,-0.611397,-0.567893,-0.574499,-0.592868,-0.567088,-0.57176,-0.566765,-0.566443,-0.584328,-0.56451,-0.550492,-0.578205,-0.523906,-0.557581,-0.512789,-0.516978,-0.526162,-0.519717,-0.478631,-0.478953,-0.485076,-0.438672,-0.486042,-0.452529,-0.446567,-0.444311,-0.472025,-0.454623,-0.432871,-0.41837,-0.444956,-0.442539,-0.389851,-0.381795,-0.383567,-0.376317,-0.385501,-0.405158,-0.379217,-0.393396,-0.385018,-0.3739,-0.377606,-0.344414,-0.361816,-0.381634,-0.35102,-0.374544,-0.346831,-0.34377,-0.363588,-0.387273,-0.311545,-0.368583,-0.343286,-0.323952,-0.357949,-0.318151,-0.34957,-0.361977,-0.35102,-0.322985,-0.33813,-0.325563,-0.354243,-0.359721,-0.327174,-0.336519,-0.328302,-0.336197,-0.330396,-0.344092,-0.325402,-0.305906,-0.35247,-0.336358,-0.365038,-0.347798,-0.337647,-0.349087,-0.314767,-0.359399,-0.340547,-0.323146,-0.320085,-0.331524,-0.32089,-0.367616,-0.331041,-0.320085,-0.309128,-0.311706,-0.362299,-0.330558,-0.354404,-0.349409,-0.334586,-0.35956,-0.350215,-0.368744,-0.323952,-0.384373,-0.349731,-0.370516,-0.360043,-0.400647,-0.369711,-0.376156,-0.399841,-0.383406,-0.400969,-0.389368,-0.423204,-0.401291,-0.395652,-0.412409,-0.434483,-0.41982,-0.413698,-0.458007,-0.400808,-0.449306,-0.431744,-0.406125,-0.4485,-0.433677,-0.433033,-0.459135,-0.42836,-0.457201,-0.447211,-0.470413,-0.460907,-0.473314,-0.43835,-0.45269,-0.449306,-0.47428,-0.461068,-0.472508,-0.466224,-0.484592,-0.485076,-0.500221,-0.496354,-0.498288,-0.481692,-0.5144,-0.495871,-0.520362,-0.514239,-0.513111,-0.516011,-0.529546,-0.531479,-0.538891,-0.560482,-0.543564,-0.558065,-0.538085,-0.552587,-0.541308,-0.577561,-0.547592,-0.587067,-0.564671,-0.559998,-0.597057,-0.582556,-0.585939,-0.586906,-0.592384,-0.587873,-0.589001,-0.588678,-0.610591,-0.601407,-0.572727,-0.628798,-0.60044,-0.577561,-0.617681,-0.584489,-0.603824,-0.592868,-0.611719,-0.617197,-0.594479,-0.601246,-0.619775,-0.624287,-0.590612,-0.63476,-0.631054,-0.62622,-0.602374,-0.630893,-0.637016,-0.645877,-0.648939,-0.61478,-0.667951,-0.630087,-0.637016,-0.640721,-0.653772,-0.638949,-0.631054,-0.646522,-0.669563,-0.658284,-0.639594,-0.682453,-0.652,-0.638143,-0.652483,-0.619292,-0.654578,-0.673591,-0.647328,-0.626381,-0.67778,-0.650872,-0.63186,-0.67778,-0.609624,-0.630409,-0.657156,-0.628315,-0.638949,-0.667629,-0.631376,-0.675685,-0.643622,-0.643783,-0.689381,-0.61043,-0.663762,-0.672141,-0.642333,-0.661345,-0.659573,-0.669079,-0.684869,-0.662312,-0.660862,-0.685997,-0.678424,-0.658284,-0.648939,-0.649905,-0.648294,-0.685192,-0.67343,-0.640399,-0.676652,-0.627993,-0.661829,-0.642333,-0.643299,-0.689381,-0.634921,-0.630893,-0.652322,-0.647166,-0.672463,-0.674074,-0.640399,-0.635243,-0.680519,-0.602857,-0.672302,-0.637338,-0.652806,-0.649905,-0.629926,-0.638627,-0.622837,-0.613169,-0.622837,-0.648616,-0.602857,-0.618164,-0.599474,-0.597218,-0.601246,-0.604307,-0.609624,-0.570471,-0.611397,-0.570632,-0.588678,-0.593029,-0.552748,-0.58755,-0.574822,-0.553714,-0.574177,-0.571277,-0.560965,-0.578044,-0.560482,-0.560965,-0.60463,-0.532607,-0.590934,-0.565477,-0.572083,-0.574338,-0.571277,-0.555326,-0.560643,-0.565638,-0.538247,-0.561126,-0.564671,-0.568377,-0.560321,-0.555165,-0.567249,-0.515528,-0.574016,-0.584489,-0.55742,-0.581428,-0.558065,-0.553231,-0.546947,-0.554681,-0.536152,-0.582717,-0.54308,-0.543886,-0.554037,-0.550653,-0.551298,-0.558065,-0.565154,-0.552587,-0.578044,-0.547592,-0.570471,-0.540502,-0.569182,-0.532607,-0.545819,-0.561126,-0.523262,-0.598829,-0.53438,-0.553392,-0.564671,-0.535185,-0.592545,-0.576272,-0.557581,-0.561771,-0.559032,-0.576272,-0.563865,-0.586262,-0.533574,-0.584167,-0.595123,-0.56596,-0.578528,-0.58755,-0.57176,-0.60608,-0.581267,-0.56451,-0.619292,-0.564832,-0.609947,-0.580622,-0.562093,-0.58465,-0.569021,-0.566282,-0.589806,-0.585939,-0.585778,-0.580783,-0.569827,-0.589967,-0.581267,-0.574983,-0.597862,-0.564832,-0.576594,-0.598829,-0.562093,-0.562899,-0.608013,-0.588034,-0.582072,-0.5803,-0.591256,-0.584006,-0.591901,-0.591256,-0.579494,-0.609302,-0.602696,-0.604791,-0.628798,-0.557581,-0.62622,-0.621387,-0.607208,-0.618486,-0.611719,-0.585778,-0.630248,-0.592545,-0.598024,-0.637821,-0.592223,-0.623965,-0.592062,-0.627509,-0.603985,-0.611075,-0.636693,-0.606563,-0.620098,-0.612364,-0.618486,-0.622192,-0.601891,-0.647489,-0.615586,-0.614136,-0.646522,-0.634438,-0.596735,-0.628476,-0.626543,-0.619453,-0.639432,-0.620098,-0.648133,-0.650711,-0.63186,-0.620903,-0.648778,-0.641527,-0.642977,-0.651194,-0.63911,-0.671013,-0.619775,-0.663762,-0.644588,-0.626381,-0.646683,-0.661023,-0.641527,-0.674719,-0.642172,-0.645877,-0.664568,-0.654578,-0.650711,-0.668435,-0.622353,-0.668274,-0.649583,-0.584489,-0.640399,-0.628154,-0.670852,-0.646522,-0.635243,-0.641366,-0.654417,-0.6462,-0.62912,-0.638949,-0.683258,-0.643138,-0.653611,-0.652322,-0.631698,-0.67778,-0.66199,-0.653128,-0.663279,-0.642977,-0.664729,-0.680036,-0.650067,-0.653128,-0.678747,-0.667629,-0.680519,-0.683419,-0.646361,-0.679069,-0.662312,-0.67488,-0.68632,-0.694053,-0.681325,-0.70501,-0.657801,-0.691798,-0.674719,-0.663923,-0.699048,-0.65345,-0.703238,-0.698404,-0.66924,-0.682291,-0.697759,-0.651839,-0.684708,-0.702754,-0.64056,-0.683419,-0.672141,-0.639755,-0.715966,-0.685675,-0.669724,-0.669563,-0.66054,-0.665696,-0.673268,-0.70211,-0.66344,-0.69067,-0.695987,-0.683097,-0.695987,-0.697115,-0.65909,-0.706943,-0.679552,-0.696309,-0.700176,-0.668918,-0.717416,-0.679713,-0.661345,-0.673268,-0.694698,-0.685836,-0.673107,-0.659895,-0.646361,-0.658284,-0.659895,-0.666662,-0.637821,-0.647328,-0.651839,-0.646683,-0.633954,-0.652,-0.621064,-0.637016,-0.648133,-0.635082,-0.63621,-0.633632,-0.607046,-0.607852,-0.639755,-0.622192,-0.642655,-0.652967,-0.63621,-0.643622,-0.633632,-0.635082,-0.659895,-0.60318,-0.649905,-0.625415,-0.627187,-0.616875,-0.621387,-0.602213,-0.612686,-0.638949,-0.587067,-0.614619,-0.624287,-0.573694,-0.598507,-0.601407,-0.583361,-0.613008,-0.593512,-0.597862,-0.626543,-0.60044,-0.609302,-0.597379,-0.575466,-0.608658,-0.606885,-0.593834,-0.596412,-0.584489,-0.575627,-0.610591,-0.572888,-0.560159,-0.629604,-0.584811,-0.55597,-0.567732,-0.562093,-0.570794,-0.558387,-0.550331,-0.536313,-0.569988,-0.5173,-0.530513,-0.509889,-0.492648,-0.53164,-0.490393,-0.47992,-0.465257,-0.4369,-0.475247,-0.477342,-0.440605,-0.434966,-0.429004,-0.394524,-0.409831,-0.39968,-0.388723,-0.377928,-0.409025,-0.379862,-0.39114,-0.372128,-0.348765,-0.40113,-0.377606,-0.356337,-0.38244,-0.363749,-0.356337,-0.3797,-0.360043,-0.338936,-0.381634,-0.325724,-0.380989,-0.336358,-0.347637,-0.35666,-0.36246,-0.351987,-0.341353,-0.310256,-0.339419,-0.343286,-0.319279,-0.34087,-0.324113,-0.334586,-0.326691,-0.325402,-0.327013,-0.288504,-0.317184,-0.304133,-0.328141,-0.290277,-0.270458,-0.295271,-0.280609,-0.275131,-0.291404,-0.289793,-0.258052,-0.272875,-0.249029,-0.275131,-0.283026,-0.213904,-0.271908,-0.243228,-0.2421,-0.255474,-0.235011,-0.260307,-0.267075,-0.235494,-0.281737,-0.260146,-0.233561,-0.247579,-0.273036,-0.244356,-0.298816,-0.249029,-0.280609,-0.259985,-0.268686,-0.237267,-0.264013,-0.272392,-0.229855,-0.258374,-0.261113,-0.232916,-0.24629,-0.26643,-0.213581,-0.277387,-0.213259,-0.225666,-0.255474,-0.236944,-0.23775,-0.216321,-0.189574,-0.225666,-0.220026,-0.212454,-0.207459,-0.183612,-0.185224,-0.188607,-0.192474,-0.158155,-0.183935,-0.156382,-0.176684,-0.153965,-0.194891,-0.164439,-0.173945,-0.163472,-0.137853,-0.168789,-0.143654,-0.179745,-0.160733,-0.177006,-0.179262,-0.212292,-0.159444,-0.201336,-0.198275,-0.195697,-0.204236,-0.222282,-0.192796,-0.22196,-0.181357,-0.22051,-0.202464,-0.230016,-0.193119,-0.223249,-0.223249,-0.235494,-0.235494,-0.227599,-0.253057,-0.27352,-0.271586,-0.265786,-0.261113,-0.259018,-0.259341,-0.261596,-0.258696,-0.289954,-0.223088,-0.28786,-0.271747,-0.260791,-0.302361,-0.274809,-0.249673,-0.295271,-0.301877,-0.24919,-0.306872,-0.259502,-0.23485,-0.289149,-0.202625,-0.274486,-0.264013,-0.244195,-0.231788,-0.238556,-0.225182,-0.234689,-0.257407,-0.218737,-0.258857,-0.224216,-0.26208,-0.232916,-0.262241,-0.247095,-0.237106,-0.240489,-0.234366,-0.259985,-0.255313,-0.247901,-0.268686,-0.248707,-0.239039,-0.255313,-0.256763,-0.242745,-0.25354,-0.245806,-0.277064,-0.258213,-0.287054,-0.304133,-0.301394,-0.285765,-0.344092,-0.331363,-0.316218,-0.371322,-0.357949,-0.379056,-0.395974,-0.386468,-0.385984,-0.390657,-0.413214,-0.41257,-0.415631,-0.448823,-0.439961,-0.466224,-0.467835,-0.483787,-0.49007,-0.500544,-0.49716,-0.505055,-0.549525,-0.501027,-0.536474,-0.573533,-0.547592,-0.516334,-0.585939,-0.575627,-0.550653,-0.575627,-0.523423,-0.586584,-0.572244,-0.547269,-0.546303,-0.581267,-0.529385,-0.552264,-0.534057,-0.554842,-0.544369,-0.520523,-0.521651,-0.520845,-0.490715,-0.51585,-0.514884,-0.497321,-0.476214,-0.480403,-0.44415,-0.420626,-0.458329,-0.396618,-0.372933,-0.357143,-0.34957,-0.302039,-0.315412,-0.243389,-0.216321,-0.232755,-0.167339,-0.124158,-0.090966,-0.053424,-0.036506,-0.003475,0.092555,0.095455,0.139281,0.163772,0.195191,0.288482,0.290254,0.314262,0.358732,0.416576,0.459274,0.489082,0.506162,0.528397,0.555144,0.551599,0.571256,0.571256,0.572867,0.582857,0.565456,0.557399,0.531942,0.505678,0.491821,0.434944,0.376617,0.365661,0.291705,0.246751,0.181012,0.123491,0.009737,-0.023455,-0.110623,-0.200853,-0.241617,-0.31509,-0.426265,-0.451401,-0.5774,-0.613975,-0.697276,-0.740779,-0.838098,-0.857272,-0.917371,-0.934612,-0.966514,-0.997128,-1.015174,-1.03902,-1.041276,-1.050782,-1.067378,-1.074467,-1.075595,-1.095736,-1.088163,-1.110076,-1.103308,-1.113781,-1.120549,-1.109431,-1.119743,-1.125866,-1.122643,-1.12941,-1.12941,-1.12941,-1.130538,-1.124254,-1.131988,-1.103147,-1.120226,-1.11781,-1.112654,-1.112654,-1.099603,-1.096541,-1.108787,-1.078818,-1.103308,-1.108464,-1.059483,-1.107014,-1.093319,-1.081396,-1.095574,-1.093319,-1.068506,-1.064316,-1.095574,-1.076078,-1.081396,-1.078334,-1.0677,-1.091224,-1.060933,-1.072534,-1.082684,-1.073823,-1.037892,-1.071567,-1.052554,-1.065766,-1.085907,-1.028547,-1.039342,-1.05336,-1.044981,-1.049976,-1.07205,-1.044176,-1.070761,-1.056582,-1.055616,-1.070922,-1.04901,-1.071567,-1.054004,-1.051265,-1.052715,-1.068506,-1.066089,-1.068828,-1.065283,-1.063511,-1.072373,-1.087357,-1.068022,-1.09348,-1.088324,-1.080912,-1.09203,-1.075756,-1.083973,-1.096863,-1.088646,-1.089613,-1.096058,-1.083973,-1.097669,-1.080751,-1.066572,-1.053199,-1.07914,-1.052877,-1.075112,-1.054166,-1.030641,-1.075917,-1.014529,-1.042726,-1.036281,-1.025002,-1.03193,-1.022424,-1.021135,-1.037086,-1.040148,-1.037892,-1.054166,-1.016301,-1.029836,-1.044498,-1.035314,-1.053038,-1.034508,-1.047559,-1.015012,-1.039503,-1.011468,-1.055938,-1.01179,-1.022102,-1.031447,-1.014368,-1.028225,-1.014851,-1.035959,-1.001639,-1.030803,-1.044498,-1.026452,-1.043854,-1.004056,-1.057388,-1.016301,-1.028063,-1.037892,-1.017429,-1.02178,-1.025324,-1.023069,-0.991488,-1.03467,-0.969253,-1.015012,-0.997772,-0.999383,-0.994066,-0.965386,-0.998417,-0.977309,-0.977148,-0.964903,-0.975215,-0.976987,-0.930906,-0.956524,-0.951207,-0.948952,-0.941379,-0.918016,-0.933645,-0.931389,-0.903192,-0.928167,-0.928167,-0.886758,-0.926233,-0.89852,-0.894653,-0.889497,-0.89288,-0.893686,-0.892397,-0.845671,-0.863878,-0.886274,-0.802007,-0.89143,-0.835681,-0.840032,-0.823597,-0.845993,-0.825853,-0.831814,-0.803779,-0.816669,-0.822147,-0.782188,-0.843093,-0.787183,-0.783961,-0.800234,-0.797978,-0.772521,-0.794111,-0.767526,-0.773488,-0.808774,-0.760437,-0.747547,-0.763337,-0.738524,-0.761403,-0.743519,-0.707266,-0.747224,-0.756408,-0.71645,-0.74223,-0.749319,-0.738524,-0.756086,-0.7179,-0.71081,-0.741746,-0.698726,-0.694215,-0.735301,-0.66634,-0.690992,-0.702593,-0.634599,-0.664407,-0.659251,-0.673591,-0.675524,-0.647811,-0.656995,-0.632343,-0.638305,-0.643783,-0.634921,-0.610591,-0.602213,-0.630732,-0.634921,-0.639432,-0.602535,-0.642494,-0.608497,-0.585617,-0.585456,-0.609947,-0.565477,-0.604307,-0.600602,-0.581106,-0.581428,-0.557743,-0.5832,-0.56741,-0.559354,-0.527129,-0.534541,-0.568216,-0.523584,-0.535024,-0.521651,-0.502638,-0.506183,-0.516817,-0.495226,-0.510855,-0.491198,-0.481209,-0.495226,-0.462679,-0.462035,-0.502477,-0.466385,-0.491037,-0.500221,-0.467996,-0.472186,-0.472991,-0.468319,-0.473314,-0.461229,-0.4427,-0.480564,-0.441733,-0.445439,-0.459618,-0.458329,-0.440928,-0.443022,-0.431582,-0.422076,-0.447695,-0.41982,-0.434966,-0.396457,-0.430616,-0.4456,-0.417565,-0.423526,-0.405641,-0.395491,-0.400163,-0.429004,-0.416759,-0.395974,-0.398874,-0.372289,-0.379539,-0.412409,-0.37535,-0.38389,-0.395168,-0.38969,-0.380023,-0.348603,-0.358754,-0.3768,-0.34377,-0.343448,-0.363266,-0.350215,-0.397263,-0.348926,-0.324113,-0.350215,-0.357626,-0.336036,-0.342481,-0.331524,-0.351504,-0.34812,-0.370194,-0.344092,-0.349409,-0.34667,-0.344898,-0.363105,-0.337325,-0.323468,-0.358432,-0.339581,-0.340708,-0.37535,-0.365844,-0.326691,-0.376961,-0.351987,-0.360043,-0.380828,-0.349892,-0.401936,-0.374706,-0.35102,-0.407092,-0.372611,-0.353115,-0.412086,-0.353598,-0.372289,-0.432227,-0.375511,-0.420143,-0.386951,-0.379539,-0.381151,-0.381473,-0.405641,-0.407414,-0.395813,-0.420304,-0.405641,-0.383245,-0.412086,-0.404836,-0.416598,-0.407253,-0.407092,-0.401291,-0.403386,-0.414181,-0.395168,-0.420787,-0.422882,-0.393879,-0.464935,-0.39114,-0.39968,-0.430777,-0.39259,-0.437866,-0.441572,-0.407736,-0.431744,-0.456557,-0.400163,-0.448662,-0.43271,-0.441733,-0.441411,-0.460101,-0.4456,-0.466869,-0.464291,-0.470252,-0.483142,-0.481531,-0.452367,-0.441733,-0.46848,-0.471541,-0.477019,-0.47992,-0.476375,-0.517623,-0.484109,-0.477181,-0.517784,-0.465096,-0.545497,-0.492487,-0.490393,-0.50296,-0.489748,-0.537441,-0.516011,-0.485881,-0.503121,-0.507311,-0.512789,-0.532768,-0.501833,-0.496999,-0.501188,-0.511822,-0.549042,-0.498127,-0.526323,-0.537763,-0.514722,-0.512306,-0.537119,-0.538247,-0.513756,-0.533252,-0.520684,-0.522134,-0.543886,-0.539213,-0.539697,-0.543403,-0.563704,-0.536474,-0.572083,-0.54598,-0.582556,-0.547753,-0.602857,-0.566604,-0.586262,-0.572888,-0.556937,-0.627187,-0.532124,-0.612525,-0.58465,-0.617358,-0.609947,-0.582395,-0.591417,-0.60318,-0.632665,-0.591901,-0.623803,-0.614136,-0.622998,-0.601085,-0.603824,-0.585939,-0.589162,-0.590451,-0.591901,-0.612847,-0.59899,-0.58755,-0.59464,-0.601568,-0.606885,-0.593512,-0.591579,-0.589323,-0.618809,-0.587389,-0.611075,-0.605274,-0.588839,-0.630409,-0.57321,-0.633793,-0.616553,-0.609786,-0.644427,-0.60898,-0.60463,-0.639594,-0.605435,-0.632826,-0.648778,-0.625092,-0.642655,-0.649422,-0.653128,-0.656995,-0.643622,-0.64765,-0.657639,-0.655545,-0.647328,-0.651517,-0.670852,-0.648455,-0.691475,-0.655706,-0.688414,-0.644427,-0.655706,-0.660862,-0.657156,-0.672624,-0.630409,-0.657962,-0.646844,-0.654256,-0.671657,-0.641849,-0.612525,-0.628959,-0.609141,-0.635565,-0.640399,-0.634438,-0.621064,-0.589001,-0.586423,-0.621225,-0.598668,-0.598346,-0.594479,-0.59029,-0.592706,-0.604791,-0.587712,-0.597379,-0.584811,-0.546303,-0.597862,-0.564671,-0.574338,-0.584489,-0.536796,-0.564993,-0.533413,-0.528096,-0.561448,-0.552587,-0.514561,-0.536152,-0.519073,-0.524712,-0.55452,-0.537763,-0.521006,-0.54308,-0.526001,-0.526968,-0.555003,-0.506666,-0.541952,-0.510533,-0.526001,-0.526001,-0.513917,-0.52149,-0.528901,-0.535024,-0.503766,-0.526484,-0.528418,-0.518589,-0.536313,-0.521167,-0.501349,-0.49861,-0.507472,-0.520845,-0.518106,-0.487492,-0.48282,-0.513433,-0.467191,-0.493776,-0.455429,-0.46993,-0.475892,-0.444633,-0.450756,-0.435449,-0.436738,-0.457685,-0.424171,-0.430293,-0.440283,-0.427071,-0.405964,-0.427393,-0.400647,-0.41112,-0.396457,-0.3739,-0.360043,-0.36391,-0.376961,-0.352793,-0.349409,-0.340708,-0.347153,-0.365199,-0.32943,-0.323468,-0.322824,-0.311062,-0.322824,-0.345542,-0.283187,-0.303166,-0.294627,-0.291888,-0.301877,-0.28786,-0.279965,-0.29656,-0.272392,-0.282543,-0.312995,-0.259341,-0.243873,-0.265947,-0.253862,-0.266269,-0.262724,-0.255635,-0.266108,-0.260307,-0.28077,-0.246773,-0.277064,-0.251285,-0.245162,-0.257891,-0.232433,-0.251123,-0.256118,-0.220671,-0.263691,-0.23195,-0.246773,-0.269492,-0.21052,-0.228727,-0.240489,-0.199241,-0.250801,-0.216482,-0.217287,-0.219221,-0.183451,-0.210842,-0.234205,-0.184418,-0.208264,-0.182484,-0.166533,-0.175234,-0.164761,-0.172173,-0.18039,-0.14172,-0.154771,-0.175073,-0.154288,-0.163311,-0.151388,-0.158799,-0.128669,-0.137853,-0.159605,-0.139142,-0.152193,-0.14172,-0.15751,-0.191991,-0.156705,-0.130119,-0.161377,-0.135114,-0.158477,-0.168789,-0.150743,-0.139948,-0.15606,-0.153804,-0.157994,-0.170722,-0.115779,-0.178134,-0.12883,-0.163955,-0.189252,-0.14317,-0.158799,-0.187479,-0.151388,-0.14462,-0.198114,-0.177651,-0.152032,-0.149293,-0.198597,-0.161861,-0.193441,-0.148971,-0.141237,-0.147037,-0.155093,-0.176845,-0.15316,-0.194408,-0.16605,-0.189896,-0.175073,-0.188929,-0.215032,-0.177812,-0.203592,-0.196341,-0.219543,-0.19183,-0.194247,-0.260952,-0.201014,-0.235655,-0.247579,-0.267075,-0.266914,-0.285121,-0.26498,-0.283026,-0.281254,-0.272875,-0.329107,-0.271586,-0.321696,-0.330074,-0.319118,-0.32089,-0.338453,-0.297366,-0.347637,-0.385501,-0.328302,-0.371,-0.331202,-0.334908,-0.352793,-0.366005,-0.351343,-0.370677,-0.378411,-0.371805,-0.381151,-0.380023,-0.368905,-0.392429,-0.383245,-0.371161,-0.409025,-0.38824,-0.408864,-0.430777,-0.392913,-0.438994,-0.451723,-0.423204,-0.454945,-0.436416,-0.478631,-0.458812,-0.465902,-0.472186,-0.478792,-0.485237,-0.513917,-0.517139,-0.478308,-0.518912,-0.548075,-0.544853,-0.526323,-0.540825,-0.541147,-0.530351,-0.558709,-0.554359,-0.574661,-0.556454,-0.587067,-0.602374,-0.577239,-0.607208,-0.584489,-0.57321,-0.629604,-0.628959,-0.588034,-0.635082,-0.624931,-0.615586,-0.634438,-0.601891,-0.633793,-0.62912,-0.641366,-0.640077,-0.63911,-0.604791,-0.637982,-0.693892,-0.624931,-0.66344,-0.677941,-0.675846,-0.686964,-0.663279,-0.669885,-0.694859,-0.704527,-0.704043,-0.693731,-0.704688,-0.704204,-0.732723,-0.711133,-0.717416,-0.74223,-0.742552,-0.728695,-0.773971,-0.730145,-0.728695,-0.747869,-0.737718,-0.750769,-0.759631,-0.751736,-0.762531,-0.769298,-0.768654,-0.762692,-0.775904,-0.768654,-0.774777,-0.756247,-0.790406,-0.778966,-0.790244,-0.800395,-0.801362,-0.787989,-0.800395,-0.808129,-0.794111,-0.830525,-0.799267,-0.784605,-0.822953,-0.80394,-0.824886,-0.820052,-0.827625,-0.845993,-0.855661,-0.830364,-0.836487,-0.885952,-0.850666,-0.871773,-0.871773,-0.849699,-0.869034,-0.889497,-0.884663,-0.899809,-0.884341,-0.870484,-0.908187,-0.88708,-0.895136,-0.904643,-0.90577,-0.890625,-0.911249,-0.922044,-0.90432,-0.923011,-0.920433,-0.907543,-0.936384,-0.917049,-0.925589,-0.923494,-0.937512,-0.934128,-0.937995,-0.936867,-0.955074,-0.946696,-0.95878,-0.969092,-0.960553,-0.988427,-0.985043,-0.986655,-1.001478,-1.002284,-1.01614,-1.015174,-1.007601,-1.027258,-1.025324,-1.019846,-1.034186,-1.029514,-1.033381,-1.049332,-1.032253,-1.033864,-1.047398,-1.046754,-1.023874,-1.054649,-1.030319,-1.024196,-1.031769,-1.005667,-1.005023,-0.9931,-0.994389,-0.97457,-0.984399,-0.948307,-0.96442,-0.963131,-0.934773,-0.95443,-0.933484,-0.933,-0.926072,-0.927039,-0.894492,-0.928972,-0.891753,-0.885952,-0.920916,-0.89707,-0.923977,-0.910926,-0.904481,-0.896747,-0.925589,-0.909637,-0.914954,-0.949596,-0.911732,-0.950079,-0.943473,-0.931228,-0.972476,-0.957652,-0.943151,-0.96877,-0.98601,-0.988749,-0.982627,-0.984882,-1.006473,-1.000189,-0.997611,-1.02613,-1.009212,-1.020007,-1.024035,-1.012596,-1.029514,-1.037731,-1.035314,-1.030319,-1.054166,-1.035314,-1.054327,-1.044981,-1.057871,-1.048043,-1.05626,-1.059805,-1.057871,-1.051104,-1.043531,-1.063672,-1.047559,-1.052232,-1.074467,-1.070117,-1.067539,-1.073662,-1.068989,-1.081879,-1.097669,-1.092674,-1.08204,-1.096541,-1.091869,-1.108464,-1.105403,-1.101214,-1.101214,-1.112009,-1.101697,-1.122321,-1.105403,-1.116521,-1.130861,-1.127638,-1.135694,-1.10637,-1.131666,-1.12941,-1.122482,-1.124254,-1.126832,-1.119743,-1.129894,-1.134728,-1.109592,-1.111365,-1.120388,-1.114909,-1.112976,-1.11926,-1.102986,-1.117648,-1.12361,-1.094608,-1.132472,-1.112976,-1.119904,-1.113943,-1.116037,-1.119099,-1.119099,-1.14085,-1.115554,-1.134728,-1.12506,-1.128121,-1.156157,-1.127638,-1.145523,-1.151646,-1.149873,-1.144878,-1.144556,-1.147617,-1.150518,-1.148101,-1.151968,-1.163891,-1.131666,-1.161152,-1.139884,-1.155835,-1.157124,-1.16228,-1.154868,-1.159218,-1.159218,-1.14939,-1.159057,-1.168564,-1.154707,-1.165824,-1.147617,-1.157929,-1.154707,-1.132955,-1.146167,-1.156963,-1.131183,-1.135533,-1.150679,-1.109753,-1.146006,-1.125866,-1.120388,-1.131022,-1.133922,-1.13215,-1.130216,-1.125543,-1.123771,-1.14794,-1.103792,-1.128444,-1.107498,-1.114587,-1.12506,-1.124254,-1.097669,-1.106692,-1.104758,-1.105242,-1.105242,-1.082362,-1.090096,-1.087518,-1.084457,-1.108303,-1.064477,-1.076723,-1.083651,-1.081557,-1.067217,-1.071406,-1.088002,-1.073823,-1.052232,-1.044981,-1.029191,-1.040953,-1.044498,-1.024841,-1.021457,-1.009212,-0.998417,-1.002928,-0.949113,-0.981015,-0.940573,-0.926072,-0.949757,-0.915438,-0.873868,-0.910282,-0.871934,-0.865489,-0.853244,-0.796851,-0.798945,-0.73949,-0.72515,-0.70791,-0.685514,-0.633632,-0.625898,-0.566282,-0.527935,-0.481853,-0.472508,-0.411442,-0.367455,-0.334102,-0.27932,-0.243873,-0.216482,-0.171689,-0.112557,-0.068086,-0.012176,0.017471,0.088849,0.094005,0.186168,0.198413,0.289127,0.324252,0.3684,0.416737,0.4372,0.463947,0.491983,0.510351,0.535809,0.549021,0.568195,0.571739,0.588174,0.592041,0.585274,0.581729,0.575768,0.558044,0.524208,0.510029,0.444451,0.42286,0.364372,0.323124,0.269953,0.219037,0.151849,0.088043,0.020049,-0.034411,-0.101278,-0.142526,-0.182646,-0.296399,-0.321212,-0.372772,-0.407575,-0.472347,-0.501994,-0.552264,-0.619614,-0.631054,-0.660379,-0.692442,-0.734657,-0.73224,-0.76237,-0.760275,-0.805229,-0.804262,-0.783961,-0.84986,-0.811513,-0.768171,-0.808613,-0.777677,-0.754475,-0.765593,-0.7237,-0.733851,-0.734496,-0.715161,-0.694053,-0.715966,-0.63766,-0.69357,-0.628154,-0.659251,-0.625737,-0.619936,-0.593673,-0.59029,-0.576594,-0.562737,-0.560643,-0.562415,-0.514722,-0.526646,-0.52584,-0.50296,-0.517945,-0.506666,-0.461229,-0.502316,-0.485559,-0.466546,-0.489587,-0.461713,-0.510533,-0.456234,-0.489104,-0.485881,-0.483464,-0.48717,-0.478953,-0.458168,-0.483948,-0.495871,-0.475892,-0.494421,-0.493132,-0.513595,-0.487492,-0.477181,-0.463002,-0.47847,-0.489748,-0.500544,-0.52004,-0.478792,-0.464291,-0.504572,-0.487815,-0.499416,-0.493293,-0.466546,-0.477019,-0.503121,-0.464613,-0.502638,-0.483303,-0.472991,-0.493776,-0.484431,-0.503121,-0.467352,-0.482659,-0.460424,-0.506505,-0.469769,-0.474925,-0.492971,-0.462518,-0.479436,-0.46848,-0.46848,-0.459296,-0.464613,-0.443344,-0.480564,-0.444633,-0.44705,-0.454945,-0.460262,-0.443989,-0.46284,-0.442055,-0.460907,-0.443344,-0.483948,-0.451884,-0.425621,-0.445278,-0.478792,-0.503283,-0.454945,-0.455268,-0.439477,-0.460746,-0.448823,-0.464613,-0.458007,-0.462679,-0.45849,-0.456557,-0.46139,-0.427393,-0.461229,-0.430777,-0.438672,-0.43416,-0.438511,-0.465096,-0.444472,-0.443022,-0.449145,-0.456073,-0.392268,-0.450756,-0.444311,-0.415953,-0.452367,-0.456234,-0.427393,-0.428521,-0.436255,-0.390657,-0.429004,-0.433838,-0.389046,-0.417726,-0.432871,-0.392913,-0.408219,-0.419659,-0.390496,-0.432066,-0.390496,-0.393557,-0.423526,-0.373417,-0.384856,-0.39259,-0.398069,-0.403063,-0.389529,-0.40258,-0.399841,-0.395652,-0.397263,-0.394685,-0.376156,-0.3797,-0.374867,-0.381956,-0.367455,-0.35956,-0.411764,-0.351181,-0.36246,-0.34957,-0.356176,-0.391463,-0.351987,-0.362944,-0.330074,-0.3681,-0.357788,-0.365199,-0.320407,-0.34377,-0.326852,-0.369389,-0.35811,-0.286571,-0.355532,-0.323468,-0.350859,-0.337325,-0.350698,-0.32798,-0.321857,-0.343931,-0.371,-0.329591,-0.322663,-0.348603,-0.350859,-0.324113,-0.337003,-0.359077,-0.327657,-0.344898,-0.328463,-0.344253,-0.343448,-0.370839,-0.357304,-0.378573,-0.367294,-0.370033,-0.402741,-0.324918,-0.365038,-0.350537,-0.374061,-0.353437,-0.39114,-0.346026,-0.362782,-0.34667,-0.357949,-0.339581,-0.356821,-0.332813,-0.328946,-0.337003,-0.303489,-0.34232,-0.312028,-0.323952,-0.356176,-0.311545,-0.289954,-0.312834,-0.317184,-0.320568,-0.318634,-0.299622,-0.330235,-0.311545,-0.308806,-0.329913,-0.290115,-0.311062,-0.310417,-0.299138,-0.314284,-0.304294,-0.313962,-0.312995,-0.282059,-0.29656,-0.333619,-0.31364,-0.294466,-0.305261,-0.305583,-0.313962,-0.341514,-0.303005,-0.310256,-0.313801,-0.286248,-0.35247,-0.304294,-0.289471,-0.32234,-0.29076,-0.287537,-0.292532,-0.268525,-0.300105,-0.289149,-0.253701,-0.272231,-0.294305,-0.256118,-0.279642,-0.281254,-0.28786,-0.258696,-0.256924,-0.256763,-0.265141,-0.274648,-0.267075,-0.28222,-0.287699,-0.263208,-0.246934,-0.26063,-0.249351,-0.272392,-0.255957,-0.231305,-0.271425,-0.221315,-0.264819,-0.231788,-0.248062,-0.246129,-0.274486,-0.249029,-0.266269,-0.259985,-0.262402,-0.254024,-0.250318,-0.257085,-0.252735,-0.248707,-0.273681,-0.247901,-0.286732,-0.240973,-0.251446,-0.265302,-0.255474,-0.246129,-0.261113,-0.249673,-0.251123,-0.262241,-0.235494,-0.2392,-0.204558,-0.245806,-0.237911,-0.225827,-0.277387,-0.226955,-0.27642,-0.26933,-0.22631,-0.243389,-0.233883,-0.223088,-0.251446,-0.259824,-0.217771,-0.271586,-0.251929,-0.245806,-0.276903,-0.2334,-0.263047,-0.265141,-0.24484,-0.25064,-0.279965,-0.246612,-0.256279,-0.281092,-0.246934,-0.271586,-0.276903,-0.297527,-0.260307,-0.288182,-0.244195,-0.313156,-0.271586,-0.260952,-0.273842,-0.271747,-0.30365,-0.276742,-0.263691,-0.258052,-0.272553,-0.27207,-0.276742,-0.276742,-0.298172,-0.286248,-0.286732,-0.307195,-0.267397,-0.279803,-0.315573,-0.280609,-0.302683,-0.296238,-0.298494,-0.319279,-0.308645,-0.316056,-0.289954,-0.321374,-0.325402,-0.330719,-0.316379,-0.320085,-0.31654,-0.350537,-0.314929,-0.304939,-0.356337,-0.282865,-0.354565,-0.332491,-0.339903,-0.358593,-0.353276,-0.350215,-0.350698,-0.362138,-0.358754,-0.368905,-0.353759,-0.377122,-0.389529,-0.397585,-0.369227,-0.403386,-0.398874,-0.380184,-0.400163,-0.385823,-0.410475,-0.403547,-0.382278,-0.38969,-0.380345,-0.397102,-0.389851,-0.414664,-0.376478,-0.429004,-0.414181,-0.381473,-0.42546,-0.394363,-0.419015,-0.430293,-0.393879,-0.407736,-0.426265,-0.417887,-0.430132,-0.438188,-0.416276,-0.461068,-0.428038,-0.455429,-0.433033,-0.452367,-0.460262,-0.463002,-0.424654,-0.466224,-0.468158,-0.455751,-0.491682,-0.456718,-0.448662,-0.49716,-0.453334,-0.481853,-0.495549,-0.45269,-0.464613,-0.480886,-0.465902,-0.467674,-0.495226,-0.466869,-0.504894,-0.481047,-0.466385,-0.474764,-0.498288,-0.48137,-0.510694,-0.493293,-0.482498,-0.498932,-0.501349,-0.475569,-0.532929,-0.468641,-0.478792,-0.486687,-0.502638,-0.500221,-0.502155,-0.502477,-0.498127,-0.51005,-0.470736,-0.49571,-0.480081,-0.50296,-0.51295,-0.506505,-0.472669,-0.498127,-0.517139,-0.493776,-0.518428,-0.493937,-0.493776,-0.483464,-0.482336,-0.508439,-0.479597,-0.494904,-0.483787,-0.498932,-0.483464,-0.522295,-0.501027,-0.49716,-0.530996,-0.494099,-0.519395,-0.51295,-0.477986,-0.491521,-0.51295,-0.483948,-0.5173,-0.491682,-0.486042,-0.50151,-0.455107,-0.465741,-0.496032,-0.432549,-0.473152,-0.46703,-0.435772,-0.455751,-0.450756,-0.422721,-0.423204,-0.424171,-0.40693,-0.40258,-0.409992,-0.372933,-0.387112,-0.363105,-0.352148,-0.390979,-0.323307,-0.343448,-0.312673,-0.301233,-0.322663,-0.315251,-0.319923,-0.301233,-0.251929,-0.305422,-0.279803,-0.276742,-0.294949,-0.246934,-0.231144,-0.273681,-0.23775,-0.249996,-0.231144,-0.245162,-0.22921,-0.242423,-0.238878,-0.205203,-0.213904,-0.208103,-0.222121,-0.177006,-0.213904,-0.18764,-0.199564,-0.185546,-0.193441,-0.178779,-0.200692,-0.18474,-0.1733,-0.178456,-0.165566,-0.20053,-0.161538,-0.18619,-0.156382,-0.162344,-0.213098,-0.172817,-0.191991,-0.19038,-0.149776,-0.178779,-0.187479,-0.184418,-0.208264,-0.198919,-0.199886,-0.201819,-0.206653,-0.175556,-0.209392,-0.201819,-0.220188,-0.197952,-0.232111,-0.211487,-0.241134,-0.224216,-0.189574,-0.255474,-0.202786,-0.213259,-0.218415,-0.21052,-0.202625,-0.225988,-0.238556,-0.222766,-0.227438,-0.22776,-0.2392,-0.225344,-0.218415,-0.206653,-0.227599,-0.198758,-0.210359,-0.198275,-0.189574,-0.235011,-0.179423,-0.208909,-0.202947,-0.187802,-0.221154,-0.19328,-0.206331,-0.208264,-0.195052,-0.223571,-0.239361,-0.195052,-0.211165,-0.241134,-0.176684,-0.249673,-0.189091,-0.214548,-0.234044,-0.249996,-0.229855,-0.25209,-0.244517,-0.213904,-0.275453,-0.247579,-0.266108,-0.262563,-0.288021,-0.254346,-0.280448,-0.300105,-0.290115,-0.312834,-0.274486,-0.295594,-0.29221,-0.286732,-0.311706,-0.301555,-0.287376,-0.298977,-0.298172,-0.328785,-0.328624,-0.321051,-0.330074,-0.34522,-0.333619,-0.348603,-0.323146,-0.355048,-0.369872,-0.364716,-0.358915,-0.408703,-0.383084,-0.392107,-0.44125,-0.390496,-0.4485,-0.439316,-0.448339,-0.466869,-0.446567,-0.449145,-0.491037,-0.461874,-0.491843,-0.515045,-0.46558,-0.505538,-0.535346,-0.54453,-0.519395,-0.505377,-0.53164,-0.491521,-0.548397,-0.504733,-0.533735,-0.562093,-0.516656,-0.539697,-0.504088,-0.515528,-0.530996,-0.50151,-0.519395,-0.535991,-0.512789,-0.513433,-0.558226,-0.498771,-0.528257,-0.523423,-0.526323,-0.518267,-0.518912,-0.544208,-0.528257,-0.540825,-0.531802,-0.526646,-0.533735,-0.533252,-0.561287,-0.561448,-0.554842,-0.558548,-0.564832,-0.558387,-0.59319,-0.557743,-0.540825,-0.609947,-0.580461,-0.577561,-0.564832,-0.558387,-0.567249,-0.579172,-0.569988,-0.596251,-0.576594,-0.593512,-0.60898,-0.581911,-0.580783,-0.611075,-0.592384,-0.619453,-0.603341,-0.597218,-0.579172,-0.603341,-0.64201,-0.642655,-0.625415,-0.619775,-0.66054,-0.61752,-0.677458,-0.671013,-0.677297,-0.680036,-0.695342,-0.704204,-0.684064,-0.732884,-0.699693,-0.729823,-0.726601,-0.712422,-0.74658,-0.75093,-0.761887,-0.750125,-0.768654,-0.767848,-0.775904,-0.764948,-0.788794,-0.793628,-0.775582,-0.814574,-0.811674,-0.80249,-0.786216,-0.824725,-0.801845,-0.797656,-0.827947,-0.817636,-0.809096,-0.827142,-0.829236,-0.847605,-0.853727,-0.827947,-0.84696,-0.85405,-0.826497,-0.880152,-0.862106,-0.849055,-0.879991,-0.869517,-0.887241,-0.885791,-0.88563,-0.883052,-0.904159,-0.908509,-0.908509,-0.909637,-0.902548,-0.925589,-0.916727,-0.934289,-0.937512,-0.943635,-0.95733,-0.962164,-0.961842,-0.968609,-0.992294,-0.971992,-0.992455,-0.992294,-0.994389,-0.999545,-1.000189,-1.004862,-1.015818,-0.996967,-1.006795,-1.009695,-1.003895,-1.017752,-1.022746,-1.016785,-1.018718,-1.019363,-1.012918,-1.016463,-1.022585,-1.01614,-1.000834,-1.003412,-0.974409,-1.010501,-0.998578,-0.989716,-0.981499,-0.981499,-0.955235,-0.985688,-0.994389,-0.962486,-0.993905,-0.946212,-0.963292,-0.977148,-0.963936,-0.953785,-0.944762,-0.947663,-0.941862,-0.921883,-0.940895,-0.954269,-0.918499,-0.90287,-0.927361,-0.930583,-0.93155,-0.920594,-0.922688,-0.90996,-0.944279,-0.904481,-0.890141,-0.934773,-0.897553,-0.901742,-0.883052,-0.881441,-0.873546,-0.878057,-0.864684,-0.895297,-0.866134,-0.852599,-0.91721,-0.8613,-0.931711,-0.898842,-0.879507,-0.899164,-0.89143,-0.901742,-0.920916,-0.894653,-0.935739,-0.913343,-0.922527,-0.914632,-0.948468,-0.916727,-0.946051,-0.934773,-0.9301,-0.941862,-0.935256,-0.932839,-0.922527,-0.939768,-0.903354,-0.908026,-0.916888,-0.895458,-0.90577,-0.894814,-0.909798,-0.912699,-0.899003,-0.892558,-0.912538,-0.895458,-0.914632,-0.874996,-0.883213,-0.89288,-0.91286,-0.908993,-0.878379,-0.909315,-0.853083,-0.883535,-0.890141,-0.85985,-0.891591,-0.874029,-0.870323,-0.909154,-0.860817,-0.859528,-0.880635,-0.861784,-0.853566,-0.903998,-0.836648,-0.898198,-0.866617,-0.907543,-0.878057,-0.879185,-0.892236,-0.888691,-0.879024,-0.893525,-0.895781,-0.877413,-0.923333,-0.901903,-0.870484,-0.900937,-0.886274,-0.885469,-0.903031,-0.893042,-0.889013,-0.889336,-0.881924,-0.857594,-0.892558,-0.851633,-0.883052,-0.874351,-0.860172,-0.851955,-0.852116,-0.82972,-0.825853,-0.837454,-0.805712,-0.853566,-0.837293,-0.814413,-0.814574,-0.831331,-0.820052,-0.838904,-0.840999,-0.801201,-0.842932,-0.81973,-0.822792,-0.837454,-0.821986,-0.860978,-0.843254,-0.838421,-0.824886,-0.842771,-0.809902,-0.827142,-0.861945,-0.83262,-0.847927,-0.83407,-0.817797,-0.853888,-0.858883,-0.81393,-0.838098,-0.855339,-0.840999,-0.884985,-0.815219,-0.862428,-0.854372,-0.848571,-0.8613,-0.856628,-0.866295,-0.865489,-0.882569,-0.886597,-0.883696,-0.899003,-0.897553,-0.87709,-0.893525,-0.903031,-0.880796,-0.904965,-0.888208,-0.890302,-0.877574,-0.880152,-0.912376,-0.892075,-0.894653,-0.87564,-0.88418,-0.896586,-0.885791,-0.871451,-0.860656,-0.87129,-0.841965,-0.898198,-0.824886,-0.863395,-0.861139,-0.830203,-0.860817,-0.840837,-0.824081,-0.845832,-0.829075,-0.820375,-0.859044,-0.799912,-0.837776,-0.824242,-0.7867,-0.806518,-0.83697,-0.817797,-0.832781,-0.834392,-0.784927,-0.830525,-0.851633,-0.80104,-0.849699,-0.822308,-0.817313,-0.816347,-0.823436,-0.812318,-0.833748,-0.81973,-0.817636,-0.816991,-0.77961,-0.811513,-0.822953,-0.82118,-0.790728,-0.807163,-0.804907,-0.802007,-0.786378,-0.811191,-0.824725,-0.784122,-0.782027,-0.805551,-0.791856,-0.793306,-0.803296,-0.802007,-0.784766,-0.77381,-0.769621,-0.800879,-0.779771,-0.763176,-0.778805,-0.76527,-0.771715,-0.793789,-0.75947,-0.757375,-0.7838,-0.764626,-0.748513,-0.780899,-0.728534,-0.790406,-0.780738,-0.749158,-0.748674,-0.722572,-0.714516,-0.74658,-0.7237,-0.715483,-0.744808,-0.702271,-0.710005,-0.718222,-0.675685,-0.705493,-0.726762,-0.714033,-0.706621,-0.736429,-0.7237,-0.73369,-0.719189,-0.705977,-0.742068,-0.725312,-0.716933,-0.740941,-0.73224,-0.718222,-0.752864,-0.743357,-0.717739,-0.751091,-0.700982,-0.72225,-0.725795,-0.722572,-0.721928,-0.724345,-0.685997,-0.696309,-0.693731,-0.694215,-0.676491,-0.657156,-0.669724,-0.636854,-0.644105,-0.60044,-0.571438,-0.590934,-0.556292,-0.573533,-0.530029,-0.49426,-0.482659,-0.493293,-0.476375,-0.424815,-0.42401,-0.406125,-0.41112,-0.373094,-0.348926,-0.30655,-0.262563,-0.296399,-0.228888,-0.217932,-0.181034,-0.15751,-0.143492,-0.100472,-0.060675,-0.038278,-0.007987,0.065002,0.019243,0.150721,0.152171,0.218393,0.269147,0.288643,0.328119,0.369367,0.398369,0.445901,0.477481,0.510834,0.54032,0.559494,0.581407,0.602675,0.620077,0.64054,0.655202,0.666481,0.682593,0.684366,0.691455,0.689522,0.674698,0.669542,0.643118,0.625394,0.610893,0.550471,0.519213,0.425116,0.41996,0.365822,0.287193,0.257224,0.162483,0.075476,0.064519,-0.047946,-0.103856,-0.152193,-0.220026,-0.265625,-0.346831,-0.390979,-0.461068,-0.487976,-0.561448,-0.611558,-0.644911,-0.670529,-0.681325,-0.730306,-0.755281,-0.769459,-0.79959,-0.796045,-0.821019,-0.855177,-0.841482,-0.831492,-0.817313,-0.83262,-0.793789,-0.798623,-0.788794,-0.783638,-0.768493,-0.721928,-0.727406,-0.71935,-0.683742,-0.685353,-0.676652,-0.630409,-0.623481,-0.602696,-0.587389,-0.579333,-0.543241,-0.504572,-0.527935,-0.481853,-0.477986,-0.46993,-0.461551,-0.452045,-0.456073,-0.420143,-0.427877,-0.453495,-0.393235,-0.435933,-0.40693,-0.412731,-0.440283,-0.41547,-0.381473,-0.412892,-0.384534,-0.3739,-0.432066,-0.376478,-0.390657,-0.391301,-0.378573,-0.405158,-0.417887,-0.373739,-0.388079,-0.387918,-0.391301,-0.431744,-0.394524,-0.377445,-0.364716,-0.367938,-0.363749,-0.369711,-0.364716,-0.371483,-0.384856,-0.363266,-0.358593,-0.38679,-0.360527,-0.379539,-0.354565,-0.366166,-0.382923,-0.365844,-0.380184,-0.374061,-0.397907,-0.349892,-0.403225,-0.353598,-0.416759,-0.376961,-0.381312,-0.392107,-0.37535,-0.363105,-0.376156,-0.358915,-0.371644,-0.407897,-0.353921,-0.372128,-0.341031,-0.365683,-0.385662,-0.347315,-0.351665,-0.324274,-0.341353,-0.298011,-0.316379,-0.311223,-0.269169,-0.293982,-0.267397,-0.287537,-0.267075,-0.26643,-0.260146,-0.259824,-0.250801,-0.252896,-0.258374,-0.2334,-0.240811,-0.246129,-0.261274,-0.247095,-0.195374,-0.234205,-0.207136,-0.241134,-0.265625,-0.23485,-0.215837,-0.236139,-0.222282,-0.208264,-0.217932,-0.204881,-0.233239,-0.221154,-0.232433,-0.212937,-0.225344,-0.228566,-0.205364,-0.275614,-0.217287,-0.231305,-0.232272,-0.223732,-0.245645,-0.242584,-0.207136,-0.256763,-0.247418,-0.219865,-0.250479,-0.21906,-0.219865,-0.218254,-0.193763,-0.214065,-0.229049,-0.177167,-0.193119,-0.212776,-0.15751,-0.157832,-0.163633,-0.152999,-0.117551,-0.146393,-0.132697,-0.107078,-0.102728,-0.100794,-0.106917,-0.117068,-0.101922,-0.106112,-0.104661,-0.099989,-0.094027,-0.101117,-0.079848,-0.096928,-0.097894,-0.05004,-0.117713,-0.072275,-0.097089,-0.107078,-0.08146,-0.080654,-0.11449,-0.08291,-0.112234,-0.079043,-0.070503,-0.115296,-0.075337,-0.10869,-0.09161,-0.067281,-0.127219,-0.103856,-0.078882,-0.096444,-0.083071,-0.080009,-0.1016,-0.088549,-0.106595,-0.122869,-0.093866,-0.096122,-0.110945,-0.093866,-0.116585,-0.125124,-0.099667,-0.090966,-0.122869,-0.081943,-0.098378,-0.09161,-0.096122,-0.115779,-0.115457,-0.102567,-0.108045,-0.091288,-0.088549,-0.104984,-0.101922,-0.108045,-0.122224,-0.096766,-0.096283,-0.124802,-0.091288,-0.134953,-0.133342,-0.102567,-0.167339,-0.111751,-0.116424,-0.127863,-0.141559,-0.144298,-0.159766,-0.117068,-0.161538,-0.1733,-0.174106,-0.166533,-0.143492,-0.165566,-0.185062,-0.163794,-0.168144,-0.167983,-0.157027,-0.164761,-0.146393,-0.153643,-0.182968,-0.179906,-0.178134,-0.186351,-0.142687,-0.186351,-0.172656,-0.193441,-0.192958,-0.159605,-0.202142,-0.157994,-0.207136,-0.183773,-0.18329,-0.201981,-0.210198,-0.18764,-0.200047,-0.204558,-0.214226,-0.233239,-0.214548,-0.243228,-0.198758,-0.224699,-0.232111,-0.196502,-0.241939,-0.237589,-0.212454,-0.225505,-0.241778,-0.218576,-0.243389,-0.22921,-0.212937,-0.258052,-0.232111,-0.210842,-0.206009,-0.235817,-0.229533,-0.221477,-0.232755,-0.212937,-0.228405,-0.220188,-0.218576,-0.249673,-0.24774,-0.229372,-0.258374,-0.214226,-0.262724,-0.275453,-0.219543,-0.255796,-0.244678,-0.235655,-0.265786,-0.263691,-0.260952,-0.25209,-0.252251,-0.268847,-0.283509,-0.27642,-0.271103,-0.273359,-0.264336,-0.272553,-0.255635,-0.291082,-0.284637,-0.275131,-0.280609,-0.297527,-0.254668,-0.328141,-0.311706,-0.292049,-0.299783,-0.29221,-0.296883,-0.3051,-0.271103,-0.30075,-0.310095,-0.272392,-0.299944,-0.318151,-0.299622,-0.300266,-0.316056,-0.287215,-0.317668,-0.303489,-0.317507,-0.291404,-0.329913,-0.313156,-0.319923,-0.341353,-0.304133,-0.338936,-0.293982,-0.301394,-0.33523,-0.334586,-0.303328,-0.315734,-0.342642,-0.313962,-0.366166,-0.343931,-0.332813,-0.352954,-0.355532,-0.348442,-0.373578,-0.336197,-0.374867,-0.395329,-0.364394,-0.407092,-0.392429,-0.380506,-0.411281,-0.382278,-0.407575,-0.420304,-0.411603,-0.400163,-0.429649,-0.403869,-0.408381,-0.435933,-0.420787,-0.42691,-0.432871,-0.450112,-0.448662,-0.462357,-0.45849,-0.425299,-0.460424,-0.480403,-0.476214,-0.463163,-0.463968,-0.480564,-0.492004,-0.513595,-0.521167,-0.474119,-0.500382,-0.514561,-0.514239,-0.560804,-0.560643,-0.526484,-0.581589,-0.522618,-0.54598,-0.571599,-0.565638,-0.565799,-0.588678,-0.565154,-0.579172,-0.601407,-0.596573,-0.602696,-0.648133,-0.60463,-0.626704,-0.660379,-0.630248,-0.652,-0.673752,-0.651356,-0.691959,-0.669724,-0.652483,-0.712744,-0.665696,-0.681002,-0.697276,-0.669885,-0.696954,-0.714033,-0.698565,-0.707588,-0.718705,-0.70066,-0.732884,-0.715161,-0.725312,-0.738363,-0.739974,-0.749641,-0.743841,-0.754958,-0.756086,-0.767687,-0.751736,-0.783477,-0.79395,-0.789439,-0.802812,-0.814252,-0.805229,-0.819569,-0.818119,-0.835037,-0.855822,-0.837937,-0.860011,-0.871612,-0.859528,-0.879507,-0.868228,-0.875318,-0.892719,-0.886758,-0.893686,-0.916405,-0.913343,-0.915921,-0.927361,-0.911893,-0.941218,-0.939123,-0.942507,-0.963936,-0.963614,-0.972315,-0.969253,-0.984882,-0.982788,-0.996483,-0.994711,-0.999222,-1.001478,-1.012596,-1.017429,-1.03467,-1.029836,-1.029836,-1.044659,-1.044176,-1.051426,-1.070922,-1.071728,-1.067055,-1.079945,-1.081234,-1.069633,-1.097025,-1.102019,-1.112815,-1.105242,-1.112492,-1.11072,-1.123932,-1.124899,-1.123932,-1.131827,-1.125543,-1.131666,-1.142623,-1.154868,-1.152129,-1.148423,-1.165341,-1.156802,-1.158091,-1.176781,-1.161474,-1.158574,-1.180487,-1.180648,-1.19241,-1.204494,-1.183709,-1.193377,-1.179842,-1.191282,-1.199661,-1.207556,-1.20965,-1.21255,-1.197727,-1.201433,-1.217384,-1.2111,-1.221251,-1.221251,-1.211584,-1.219801,-1.200144,-1.228502,-1.234302,-1.241553,-1.214806,-1.219962,-1.229307,-1.221573,-1.236397,-1.235591,-1.23978,-1.234786,-1.241069,-1.215451,-1.228824,-1.230113,-1.225924,-1.255732,-1.23543,-1.24397,-1.24397,-1.234947,-1.230919,-1.23833,-1.228824,-1.241553,-1.244614,-1.23543,-1.23978,-1.230919,-1.233335,-1.237202,-1.221251,-1.233658,-1.230919,-1.234141,-1.234786,-1.231241,-1.245259,-1.238169,-1.236397,-1.233819,-1.240586,-1.234624,-1.235591,-1.240586,-1.23253,-1.237041,-1.237041,-1.242842,-1.217868,-1.237041,-1.217062,-1.224312,-1.218834,-1.205139,-1.201272,-1.197083,-1.181937,-1.176942,-1.172914,-1.161957,-1.1423,-1.139561,-1.113459,-1.134083,-1.131988,-1.116359,-1.101375,-1.114909,-1.060127,-1.078173,-1.082684,-1.036442,-1.09638,-1.046593,-1.046915,-1.051265,-1.04627,-1.015818,-1.022746,-1.006956,-1.017268,-0.998094,-1.002767,-0.987138,-0.969575,-0.967159,-0.988749,-0.96587,-0.970864,-0.950885,-0.949757,-0.945407,-0.967159,-0.950079,-0.905126,-0.943312,-0.914632,-0.924622,-0.894975,-0.888047,-0.894814,-0.872257,-0.870806,-0.866778,-0.841804,-0.846799,-0.851149,-0.83407,-0.836004,-0.831653,-0.799106,-0.81683,-0.777677,-0.781866,-0.819247,-0.74803,-0.763498,-0.767526,-0.763659,-0.739329,-0.764626,-0.744646,-0.780255,-0.756892,-0.734818,-0.723539,-0.756086,-0.754958,-0.728212,-0.728695,-0.729178,-0.735462,-0.726601,-0.723539,-0.707427,-0.718705,-0.659734,-0.731112,-0.694859,-0.691314,-0.711616,-0.717416,-0.678908,-0.711777,-0.663762,-0.684386,-0.685997,-0.665212,-0.669724,-0.673107,-0.679552,-0.704849,-0.627348,-0.671496,-0.676491,-0.648294,-0.672463,-0.636371,-0.655223,-0.64056,-0.634921,-0.61333,-0.612686,-0.642494,-0.605274,-0.624609,-0.579978,-0.605113,-0.587712,-0.606402,-0.599635,-0.576111,-0.575466,-0.577239,-0.59609,-0.582717,-0.562576,-0.587067,-0.55887,-0.56886,-0.572888,-0.532124,-0.542919,-0.563382,-0.541147,-0.559837,-0.506988,-0.526484,-0.548236,-0.516334,-0.527935,-0.509244,-0.500705,-0.527612,-0.512789,-0.501671,-0.49716,-0.499577,-0.502155,-0.491359,-0.480886,-0.503927,-0.478953,-0.516011,-0.491037,-0.489426,-0.500221,-0.45994,-0.5086,-0.497804,-0.484914,-0.498288,-0.476697,-0.510694,-0.515528,-0.49861,-0.472025,-0.499577,-0.471219,-0.503121,-0.493293,-0.478308,-0.504572,-0.472025,-0.480886,-0.512144,-0.475086,-0.476214,-0.494421,-0.47283,-0.455429,-0.486526,-0.463807,-0.502638,-0.485398,-0.510211,-0.496354,-0.449306,-0.469447,-0.506666,-0.453334,-0.457846,-0.483787,-0.456396,-0.480242,-0.455429,-0.466224,-0.493937,-0.498449,-0.481047,-0.48427,-0.506344,-0.472508,-0.509566,-0.473636,-0.471541,-0.489748,-0.466707,-0.49281,-0.457846,-0.47138,-0.484753,-0.5173,-0.446245,-0.469447,-0.519073,-0.453173,-0.486203,-0.49716,-0.457362,-0.493937,-0.496354,-0.475247,-0.499255,-0.481209,-0.490554,-0.513756,-0.496838,-0.488781,-0.496838,-0.486687,-0.50296,-0.475569,-0.514078,-0.519234,-0.499899,-0.496677,-0.5086,-0.499738,-0.509728,-0.509889,-0.518912,-0.494099,-0.512628,-0.513595,-0.509728,-0.523101,-0.513433,-0.515206,-0.514561,-0.504249,-0.549847,-0.513595,-0.51295,-0.519073,-0.53164,-0.509083,-0.51005,-0.49571,-0.564671,-0.538569,-0.525518,-0.532929,-0.508922,-0.535024,-0.552425,-0.534218,-0.533574,-0.53164,-0.551781,-0.494743,-0.556776,-0.550653,-0.54872,-0.555003,-0.541952,-0.536152,-0.537924,-0.538569,-0.526968,-0.550814,-0.555165,-0.502155,-0.545336,-0.518912,-0.564671,-0.551136,-0.544208,-0.542275,-0.566121,-0.512789,-0.519878,-0.552264,-0.526001,-0.542597,-0.523584,-0.494099,-0.526484,-0.526323,-0.510694,-0.505538,-0.520684,-0.513111,-0.520684,-0.512467,-0.535669,-0.514884,-0.527935,-0.515045,-0.508277,-0.492165,-0.507472,-0.505861,-0.518428,-0.531318,-0.482659,-0.522456,-0.494582,-0.507311,-0.531963,-0.493937,-0.474925,-0.492326,-0.492004,-0.500221,-0.505377,-0.482981,-0.475086,-0.518267,-0.46848,-0.484431,-0.45704,-0.471541,-0.483625,-0.476697,-0.443828,-0.484109,-0.458007,-0.418209,-0.445761,-0.433516,-0.413375,-0.461713,-0.425943,-0.41837,-0.407092,-0.418209,-0.398391,-0.460907,-0.419337,-0.375995,-0.413375,-0.375833,-0.405964,-0.423043,-0.401936,-0.394685,-0.387757,-0.398391,-0.427715,-0.41112,-0.407575,-0.410959,-0.393718,-0.446084,-0.408864,-0.416437,-0.442861,-0.379539,-0.395007,-0.397102,-0.413053,-0.397746,-0.414342,-0.397263,-0.40403,-0.438188,-0.422237,-0.432388,-0.397746,-0.40403,-0.420948,-0.427393,-0.420143,-0.410636,-0.412086,-0.3797,-0.404836,-0.416437,-0.416114,-0.450756,-0.414987,-0.392268,-0.454623,-0.420948,-0.414503,-0.410314,-0.426104,-0.402097,-0.430132,-0.392913,-0.403708,-0.385501,-0.38679,-0.417565,-0.416114,-0.383567,-0.411281,-0.410636,-0.370839,-0.422398,-0.395007,-0.395491,-0.376156,-0.372933,-0.36391,-0.398069,-0.390012,-0.373578,-0.396135,-0.353276,-0.369872,-0.401774,-0.382601,-0.395168,-0.404514,-0.3739,-0.401291,-0.386468,-0.387918,-0.42401,-0.427877,-0.406447,-0.443344,-0.441089,-0.446245,-0.424171,-0.432549,-0.417565,-0.458007,-0.463807,-0.460746,-0.453334,-0.432227,-0.449145,-0.450595,-0.475086,-0.476536,-0.479114,-0.449789,-0.457201,-0.452529,-0.433033,-0.476536,-0.464129,-0.473152,-0.475408,-0.473797,-0.489265,-0.476053,-0.470897,-0.493937,-0.471702,-0.468158,-0.503927,-0.496677,-0.491037,-0.493615,-0.466063,-0.498127,-0.511661,-0.500221,-0.487331,-0.508439,-0.510694,-0.499899,-0.537924,-0.494582,-0.539213,-0.525679,-0.5115,-0.538247,-0.526646,-0.516011,-0.531157,-0.511017,-0.533091,-0.563382,-0.52874,-0.533896,-0.562415,-0.541791,-0.559032,-0.532768,-0.579817,-0.539697,-0.540019,-0.528901,-0.574983,-0.560965,-0.538891,-0.545658,-0.557098,-0.578044,-0.571116,-0.560643,-0.573049,-0.571599,-0.595446,-0.563704,-0.599474,-0.577722,-0.568699,-0.559354,-0.589001,-0.552103,-0.5774,-0.574177,-0.5803,-0.573533,-0.569343,-0.596412,-0.533091,-0.584811,-0.582395,-0.548236,-0.579333,-0.554359,-0.551136,-0.564832,-0.548558,-0.577239,-0.543241,-0.573694,-0.558065,-0.544853,-0.533091,-0.585456,-0.553231,-0.562254,-0.562737,-0.557581,-0.54308,-0.53438,-0.543564,-0.518912,-0.549042,-0.520523,-0.569988,-0.524068,-0.529224,-0.515367,-0.566927,-0.518428,-0.522779,-0.536474,-0.517139,-0.480725,-0.514884,-0.503766,-0.517945,-0.521651,-0.50006,-0.52584,-0.544047,-0.526968,-0.536313,-0.515367,-0.515045,-0.52584,-0.532929,-0.540663,-0.547431,-0.50296,-0.509405,-0.530029,-0.517945,-0.50151,-0.526001,-0.485076,-0.49571,-0.504733,-0.475892,-0.477342,-0.49281,-0.464129,-0.460746,-0.440928,-0.42401,-0.457201,-0.422559,-0.39259,-0.41402,-0.364877,-0.380667,-0.346831,-0.351826,-0.335391,-0.334586,-0.308,-0.32089,-0.272392,-0.276903,-0.257246,-0.192796,-0.203753,-0.209231,-0.151388,-0.120774,-0.124158,-0.062769,-0.045045,-0.037634,0.059363,0.033583,0.094166,0.137992,0.14347,0.194063,0.243206,0.283648,0.329086,0.365016,0.401914,0.448157,0.475065,0.5002,0.52888,0.554338,0.584146,0.610248,0.636995,0.66632,0.690811,0.718847,0.740276,0.765412,0.784263,0.797798,0.814716,0.815683,0.826156,0.82245,0.818422,0.811494,0.787808,0.752361,0.746238,0.700801,0.65923,0.605898,0.576895,0.472164,0.448801,0.370333,0.335692,0.26093,0.197286,0.166672,0.077892,0.040834,0.010704,-0.049396,-0.096605,-0.172817,-0.223571,-0.234689,-0.281415,-0.330074,-0.375672,-0.383406,-0.42401,-0.450917,-0.469447,-0.50151,-0.498449,-0.494743,-0.5144,-0.47138,-0.483625,-0.522779,-0.47283,-0.463163,-0.481531,-0.424332,-0.439155,-0.425943,-0.357949,-0.418692,-0.375511,-0.331847,-0.360849,-0.325563,-0.328302,-0.317507,-0.245162,-0.281576,-0.274809,-0.25209,-0.259985,-0.238233,-0.212776,-0.203753,-0.207942,-0.170561,-0.19763,-0.145748,-0.14317,-0.147843,-0.140109,-0.151226,-0.157027,-0.118357,-0.113362,-0.14027,-0.089838,-0.115296,-0.092738,-0.095155,-0.101117,-0.098539,-0.098861,-0.11014,-0.074853,-0.087421,-0.114973,-0.036667,-0.102567,-0.074692,-0.075015,-0.08436,-0.095477,-0.059063,-0.094672,-0.090966,-0.100633,-0.117551,-0.073403,-0.088227,-0.090966,-0.069053,-0.099505,-0.110945,-0.081782,-0.091933,-0.098055,-0.126735,-0.119163,-0.112718,-0.124158,-0.139142,-0.097894,-0.109334,-0.101761,-0.135597,-0.105467,-0.152193,-0.13882,-0.139625,-0.158155,-0.138014,-0.161216,-0.177006,-0.165566,-0.150582,-0.186996,-0.178456,-0.189574,-0.175395,-0.181357,-0.215998,-0.176362,-0.189735,-0.210198,-0.185546,-0.185546,-0.210681,-0.181679,-0.187318,-0.192958,-0.17749,-0.183129,-0.176362,-0.184579,-0.173623,-0.171367,-0.189252,-0.193441,-0.149454,-0.155254,-0.179906,-0.160088,-0.142365,-0.192474,-0.144943,-0.195213,-0.159283,-0.194891,-0.218254,-0.180712,-0.198597,-0.227438,-0.19038,-0.235011,-0.258857,-0.242745,-0.255474,-0.26498,-0.270297,-0.283509,-0.283832,-0.303489,-0.290438,-0.33378,-0.320729,-0.297366,-0.330719,-0.322824,-0.346831,-0.31654,-0.338936,-0.342642,-0.343286,-0.348603,-0.382923,-0.365683,-0.346509,-0.403708,-0.350215,-0.383245,-0.380828,-0.392429,-0.390818,-0.395168,-0.424815,-0.419498,-0.375672,-0.435611,-0.436416,-0.422398,-0.441089,-0.42401,-0.437061,-0.462679,-0.454945,-0.463807,-0.459618,-0.494421,-0.468319,-0.464613,-0.477825,-0.455429,-0.461551,-0.480886,-0.480081,-0.483303,-0.450273,-0.490554,-0.503605,-0.485076,-0.467513,-0.510855,-0.453012,-0.499255,-0.46993,-0.476375,-0.470574,-0.483464,-0.451562,-0.497643,-0.472669,-0.456879,-0.504894,-0.484431,-0.507472,-0.510694,-0.49007,-0.502477,-0.499255,-0.50006,-0.494743,-0.544369,-0.503444,-0.543564,-0.566121,-0.522456,-0.533896,-0.532446,-0.559193,-0.575627,-0.553553,-0.550009,-0.570955,-0.578044,-0.571921,-0.593029,-0.595929,-0.59319,-0.590773,-0.61188,-0.576594,-0.5861,-0.587712,-0.592706,-0.611397,-0.602857,-0.627026,-0.608497,-0.588839,-0.615264,-0.579817,-0.596251,-0.595768,-0.604952,-0.569343,-0.578366,-0.584167,-0.602696,-0.573533,-0.571921,-0.599151,-0.562254,-0.575627,-0.569021,-0.592706,-0.560321,-0.577722,-0.545658,-0.554359,-0.557098,-0.563382,-0.578689,-0.554359,-0.54308,-0.568699,-0.557259,-0.539052,-0.54163,-0.546947,-0.520845,-0.55887,-0.55162,-0.541791,-0.559676,-0.530674,-0.543564,-0.545819,-0.535507,-0.536474,-0.553714,-0.529224,-0.563543,-0.555003,-0.529546,-0.571599,-0.552587,-0.587228,-0.575144,-0.610752,-0.56596,-0.596251,-0.577077,-0.566604,-0.606241,-0.548075,-0.62912,-0.584167,-0.606724,-0.628476,-0.605113,-0.614297,-0.622676,-0.604791,-0.615425,-0.620903,-0.602696,-0.637016,-0.61478,-0.629282,-0.628637,-0.614136,-0.600924,-0.605435,-0.603341,-0.593351,-0.614297,-0.613169,-0.602857,-0.589645,-0.595607,-0.566282,-0.591256,-0.573855,-0.574661,-0.59174,-0.579494,-0.559354,-0.623481,-0.561287,-0.611075,-0.584006,-0.593029,-0.583522,-0.624609,-0.579333,-0.607852,-0.613653,-0.623803,-0.667951,-0.623642,-0.653772,-0.613653,-0.647489,-0.643299,-0.664246,-0.65345,-0.640077,-0.657639,-0.672302,-0.655867,-0.694537,-0.661023,-0.699048,-0.678102,-0.673107,-0.664246,-0.679713,-0.682775,-0.685031,-0.687609,-0.675685,-0.68358,-0.671496,-0.694053,-0.662312,-0.698887,-0.668274,-0.665212,-0.657317,-0.697437,-0.685514,-0.664729,-0.708071,-0.621064,-0.673268,-0.699532,-0.642333,-0.688897,-0.653772,-0.66199,-0.671657,-0.683097,-0.652,-0.670529,-0.703076,-0.647489,-0.698887,-0.658928,-0.682775,-0.683258,-0.679069,-0.672463,-0.694537,-0.685031,-0.675202,-0.678908,-0.678586,-0.686158,-0.718867,-0.698887,-0.680841,-0.699693,-0.684225,-0.699854,-0.685675,-0.675846,-0.726762,-0.681325,-0.701143,-0.7237,-0.708716,-0.710166,-0.734173,-0.711133,-0.721606,-0.727728,-0.701949,-0.738201,-0.715322,-0.744002,-0.766882,-0.737718,-0.745291,-0.735301,-0.760759,-0.765915,-0.740618,-0.765915,-0.766559,-0.761726,-0.775421,-0.788633,-0.761242,-0.777677,-0.796367,-0.765754,-0.773326,-0.790889,-0.767848,-0.793628,-0.805229,-0.767526,-0.814413,-0.800395,-0.786539,-0.803779,-0.815541,-0.807485,-0.815863,-0.814413,-0.809418,-0.836487,-0.841321,-0.831976,-0.859206,-0.835359,-0.849377,-0.860656,-0.863556,-0.875318,-0.875801,-0.882085,-0.889013,-0.890786,-0.902548,-0.907543,-0.911732,-0.920916,-0.90996,-0.916082,-0.929778,-0.931872,-0.929456,-0.935578,-0.938479,-0.949113,-0.970381,-0.949435,-0.964258,-0.965547,-0.963131,-0.968125,-0.97602,-0.982304,-0.978921,-0.993583,-0.980371,-0.985527,-0.988588,-0.980532,-0.983593,-0.979565,-0.980854,-0.987299,-0.989394,-0.996322,-0.995194,-0.992938,-0.991972,-0.990038,-0.990038,-0.986977,-0.984882,-0.989877,-0.990522,-0.985204,-0.981499,-0.991005,-0.983271,-0.966192,-0.982627,-0.98021,-0.98601,-0.967964,-0.981338,-0.986171,-0.976182,-0.974409,-0.961036,-0.982788,-0.966836,-0.969898,-0.979404,-0.97312,-0.970381,-0.971348,-0.979082,-0.967964,-0.982788,-0.97876,-0.985366,-0.963292,-0.962647,-0.963292,-0.950079,-0.95153,-0.94009,-0.952013,-0.945729,-0.943151,-0.938156,-0.932356,-0.931872,-0.932839,-0.923011,-0.918821,-0.917371,-0.89707,-0.916405,-0.874351,-0.926716,-0.881924,-0.864684,-0.910282,-0.859528,-0.876446,-0.871129,-0.863395,-0.892397,-0.87419,-0.865328,-0.881441,-0.865489,-0.863556,-0.912054,-0.853405,-0.894814,-0.876285,-0.850827,-0.864039,-0.86275,-0.841965,-0.870484,-0.845993,-0.841482,-0.877896,-0.835681,-0.839548,-0.841643,-0.819408,-0.826336,-0.827625,-0.822792,-0.787183,-0.80104,-0.808774,-0.788794,-0.808774,-0.783477,-0.799912,-0.802812,-0.790889,-0.784605,-0.797656,-0.761403,-0.791856,-0.764304,-0.747708,-0.786378,-0.729178,-0.789761,-0.748191,-0.757375,-0.756892,-0.757536,-0.738685,-0.768171,-0.720478,-0.742713,-0.760114,-0.728534,-0.754797,-0.74368,-0.735946,-0.747869,-0.748674,-0.728856,-0.75093,-0.728856,-0.712099,-0.769137,-0.767687,-0.748997,-0.762531,-0.746097,-0.768493,-0.758664,-0.75947,-0.746258,-0.772037,-0.724667,-0.762692,-0.790567,-0.741746,-0.768815,-0.790889,-0.746741,-0.737718,-0.738363,-0.730145,-0.719028,-0.736268,-0.699854,-0.701304,-0.70936,-0.708877,-0.70356,-0.672302,-0.693409,-0.68068,-0.681808,-0.674719,-0.675685,-0.673913,-0.675041,-0.668596,-0.668274,-0.688897,-0.661023,-0.685031,-0.655867,-0.659412,-0.677619,-0.703076,-0.662634,-0.68632,-0.651839,-0.666018,-0.690186,-0.671979,-0.672302,-0.687125,-0.672302,-0.682453,-0.672624,-0.683419,-0.676652,-0.671013,-0.668918,-0.651033,-0.659573,-0.662473,-0.671818,-0.671657,-0.66054,-0.637177,-0.649261,-0.628798,-0.648778,-0.631698,-0.609624,-0.631054,-0.634921,-0.602374,-0.611075,-0.613975,-0.589162,-0.621064,-0.596573,-0.586262,-0.621387,-0.571438,-0.607852,-0.596896,-0.567249,-0.589806,-0.605274,-0.567893,-0.608335,-0.585295,-0.560321,-0.579172,-0.588678,-0.584167,-0.57031,-0.564832,-0.587712,-0.586262,-0.605758,-0.57176,-0.582556,-0.567088,-0.584328,-0.589484,-0.557581,-0.592545,-0.572083,-0.578044,-0.598507,-0.578366,-0.546786,-0.575305,-0.566443,-0.573694,-0.576916,-0.550653,-0.58175,-0.579333,-0.577722,-0.545819,-0.54598,-0.553714,-0.577239,-0.561126,-0.523101,-0.604469,-0.529546,-0.566927,-0.547753,-0.504733,-0.545658,-0.545497,-0.560965,-0.542597,-0.520201,-0.532929,-0.560643,-0.5115,-0.545175,-0.558226,-0.52584,-0.543241,-0.54308,-0.508277,-0.540825,-0.538408,-0.535669,-0.528579,-0.537119,-0.522456,-0.552748,-0.52874,-0.521651,-0.53583,-0.526162,-0.530029,-0.52729,-0.511178,-0.490393,-0.533091,-0.509728,-0.506344,-0.498932,-0.506344,-0.489587,-0.49716,-0.493615,-0.479275,-0.495226,-0.501994,-0.506988,-0.465418,-0.475247,-0.470736,-0.475086,-0.486526,-0.48862,-0.46284,-0.454623,-0.461229,-0.468802,-0.506666,-0.453818,-0.47283,-0.487009,-0.474925,-0.501349,-0.499577,-0.480242,-0.492004,-0.50715,-0.482498,-0.491198,-0.511339,-0.460585,-0.50151,-0.471541,-0.490715,-0.501027,-0.469447,-0.489748,-0.514239,-0.423848,-0.446084,-0.491843,-0.385018,-0.453818,-0.435772,-0.418692,-0.462196,-0.417081,-0.399841,-0.434805,-0.394363,-0.39114,-0.425782,-0.372289,-0.380023,-0.388401,-0.377606,-0.364233,-0.373578,-0.377122,-0.342803,-0.360688,-0.326691,-0.370355,-0.351987,-0.343609,-0.331847,-0.324435,-0.317668,-0.358593,-0.350698,-0.3109,-0.327818,-0.329752,-0.313801,-0.335875,-0.277548,-0.323468,-0.313317,-0.323307,-0.322663,-0.345864,-0.288343,-0.315895,-0.27932,-0.312995,-0.321051,-0.289149,-0.315573,-0.304294,-0.29656,-0.325402,-0.309773,-0.289632,-0.314445,-0.309128,-0.33233,-0.31364,-0.314123,-0.334102,-0.324757,-0.284798,-0.283026,-0.327335,-0.312351,-0.321374,-0.310095,-0.309934,-0.333619,-0.341192,-0.298011,-0.303328,-0.327335,-0.334102,-0.322985,-0.32089,-0.301716,-0.320085,-0.32089,-0.314445,-0.319762,-0.33233,-0.312995,-0.316862,-0.301555,-0.332813,-0.331041,-0.307356,-0.309934,-0.274325,-0.286571,-0.310256,-0.310256,-0.291082,-0.285121,-0.262563,-0.309934,-0.293821,-0.32798,-0.300427,-0.320729,-0.320085,-0.299622,-0.342481,-0.297366,-0.322501,-0.318634,-0.337647,-0.350859,-0.334586,-0.346348,-0.345864,-0.330396,-0.313962,-0.372128,-0.339258,-0.33233,-0.34812,-0.307517,-0.326852,-0.348281,-0.345542,-0.332169,-0.331041,-0.301877,-0.305422,-0.339097,-0.294627,-0.32234,-0.286087,-0.305906,-0.315734,-0.288182,-0.271908,-0.294144,-0.283509,-0.268525,-0.31944,-0.249512,-0.297366,-0.244195,-0.278837,-0.265947,-0.271425,-0.230499,-0.275937,-0.27207,-0.250318,-0.280287,-0.244195,-0.293821,-0.272231,-0.292693,-0.295755,-0.28077,-0.294627,-0.302844,-0.308806,-0.281737,-0.284798,-0.314606,-0.308806,-0.313317,-0.302039,-0.328785,-0.31799,-0.352632,-0.317829,-0.350054,-0.341353,-0.337808,-0.380023,-0.344253,-0.382762,-0.356982,-0.368905,-0.355048,-0.368583,-0.37245,-0.377928,-0.34812,-0.355532,-0.369227,-0.360204,-0.366811,-0.380828,-0.334263,-0.358432,-0.357143,-0.353921,-0.384373,-0.379056,-0.368261,-0.393235,-0.361171,-0.352954,-0.401774,-0.350537,-0.385018,-0.381634,-0.381151,-0.387112,-0.394524,-0.40258,-0.394846,-0.415148,-0.370677,-0.456396,-0.404352,-0.436738,-0.415309,-0.429649,-0.444795,-0.434322,-0.454784,-0.429166,-0.465096,-0.467352,-0.457362,-0.481047,-0.491037,-0.453818,-0.472508,-0.51005,-0.476858,-0.496515,-0.51005,-0.541952,-0.509889,-0.501349,-0.545819,-0.520362,-0.542919,-0.56886,-0.570471,-0.539052,-0.577883,-0.554681,-0.583845,-0.577077,-0.565315,-0.565799,-0.56741,-0.567249,-0.570632,-0.574177,-0.588034,-0.60608,-0.583684,-0.582717,-0.642977,-0.569505,-0.59609,-0.628959,-0.595446,-0.59174,-0.629926,-0.590773,-0.648778,-0.639271,-0.635727,-0.650389,-0.620098,-0.658928,-0.62767,-0.635404,-0.651678,-0.659573,-0.668113,-0.674557,-0.660862,-0.666662,-0.678908,-0.719028,-0.663601,-0.688736,-0.692281,-0.726117,-0.698726,-0.713711,-0.719833,-0.735785,-0.702432,-0.72225,-0.739974,-0.70936,-0.761403,-0.730306,-0.740135,-0.758664,-0.744485,-0.752541,-0.756892,-0.746097,-0.738685,-0.768976,-0.755603,-0.742713,-0.762692,-0.740457,-0.747547,-0.758342,-0.759792,-0.743035,-0.775904,-0.756247,-0.772199,-0.769621,-0.755603,-0.77236,-0.783155,-0.749963,-0.748352,-0.784122,-0.75383,-0.767687,-0.772843,-0.742874,-0.780255,-0.719833,-0.771232,-0.77381,-0.729823,-0.751736,-0.759792,-0.748836,-0.763176,