-0.665373,-0.662634,-0.649905,-0.634115,-0.59899,-0.652806,-0.635565,-0.622837,-0.609141,-0.627026,-0.626381,-0.599313,-0.600924,-0.628637,-0.61478,-0.620903,-0.61752,-0.600924,-0.628154,-0.652,-0.580461,-0.614136,-0.626704,-0.588839,-0.616069,-0.623159,-0.587228,-0.611719,-0.632987,-0.570471,-0.643299,-0.600602,-0.605435,-0.612202,-0.627509,-0.599635,-0.638305,-0.643783,-0.592706,-0.607852,-0.611558,-0.59464,-0.634276,-0.612525,-0.611558,-0.600602,-0.641527,-0.586745,-0.605919,-0.590451,-0.607369,-0.57176,-0.588034,-0.607369,-0.603502,-0.611719,-0.612686,-0.618486,-0.599474,-0.631537,-0.582878,-0.586745,-0.641849,-0.581911,-0.61752,-0.628476,-0.590934,-0.62767,-0.601891,-0.608497,-0.632826,-0.636371,-0.603341,-0.623965,-0.625576,-0.630893,-0.625415,-0.63911,-0.634599,-0.598829,-0.646522,-0.616553,-0.638466,-0.610108,-0.615264,-0.607369,-0.609463,-0.632182,-0.605919,-0.623642,-0.594318,-0.608335,-0.59609,-0.608335,-0.593512,-0.572405,-0.623642,-0.559676,-0.588839,-0.588034,-0.579333,-0.556615,-0.570794,-0.576433,-0.582395,-0.593351,-0.525034,-0.564671,-0.566604,-0.552587,-0.561126,-0.569343,-0.563382,-0.537119,-0.574661,-0.576111,-0.569505,-0.579655,-0.545658,-0.561448,-0.556292,-0.591095,-0.55162,-0.563865,-0.553553,-0.548558,-0.538408,-0.554037,-0.54163,-0.550975,-0.561126,-0.545819,-0.517139,-0.57321,-0.541791,-0.542597,-0.563543,-0.520362,-0.552425,-0.541147,-0.549042,-0.546786,-0.533896,-0.552909,-0.548397,-0.529385,-0.55452,-0.532285,-0.537119,-0.53873,-0.531963,-0.517139,-0.521651,-0.56596,-0.518267,-0.545336,-0.532446,-0.546947,-0.536313,-0.539858,-0.516495,-0.541952,-0.542597,-0.53019,-0.545658,-0.520845,-0.536313,-0.533413,-0.495065,-0.51585,-0.508922,-0.509405,-0.493132,-0.511822,-0.521006,-0.497966,-0.534218,-0.483787,-0.519395,-0.488298,-0.495226,-0.507472,-0.516817,-0.471863,-0.512789,-0.488943,-0.483787,-0.512467,-0.496999,-0.510372,-0.464774,-0.495226,-0.491359,-0.476858,-0.500544,-0.49281,-0.486526,-0.489265,-0.526001,-0.488943,-0.477342,-0.484753,-0.47992,-0.491843,-0.487976,-0.475569,-0.459618,-0.496032,-0.471541,-0.479275,-0.495065,-0.451401,-0.477342,-0.468641,-0.463968,-0.460101,-0.462679,-0.463324,-0.480886,-0.466707,-0.476214,-0.455268,-0.46703,-0.479275,-0.436094,-0.4427,-0.458812,-0.444795,-0.453012,-0.434966,-0.446567,-0.412086,-0.444633,-0.451723,-0.400324,-0.426265,-0.405641,-0.412892,-0.423687,-0.416437,-0.413537,-0.403225,-0.402097,-0.363588,-0.429004,-0.385179,-0.406286,-0.397907,-0.380184,-0.406286,-0.400647,-0.371,-0.417081,-0.385984,-0.36391,-0.374867,-0.394363,-0.366327,-0.414503,-0.356499,-0.344898,-0.370355,-0.341514,-0.344575,-0.34377,-0.32089,-0.332491,-0.324113,-0.310578,-0.338453,-0.313478,-0.314929,-0.299138,-0.321696,-0.283832,-0.320729,-0.303166,-0.293016,-0.312351,-0.297849,-0.306711,-0.300911,-0.28077,-0.311062,-0.298494,-0.299138,-0.300911,-0.300427,-0.296077,-0.295271,-0.334263,-0.281254,-0.310739,-0.294305,-0.285121,-0.318312,-0.319279,-0.286571,-0.297527,-0.297849,-0.31799,-0.327818,-0.314445,-0.292855,-0.304939,-0.275131,-0.297205,-0.307678,-0.292693,-0.304617,-0.306067,-0.255796,-0.308161,-0.297688,-0.283832,-0.292371,-0.250962,-0.274325,-0.247579,-0.28786,-0.24774,-0.247901,-0.243228,-0.249673,-0.237428,-0.2363,-0.24774,-0.241134,-0.242423,-0.21906,-0.258857,-0.241134,-0.244195,-0.245001,-0.225182,-0.259985,-0.238878,-0.238395,-0.249351,-0.225827,-0.230499,-0.249673,-0.245806,-0.249351,-0.28222,-0.214065,-0.235172,-0.25209,-0.249512,-0.242745,-0.274325,-0.268041,-0.262241,-0.293499,-0.266752,-0.243389,-0.274809,-0.272553,-0.301233,-0.253379,-0.29221,-0.284154,-0.264497,-0.281737,-0.249996,-0.252574,-0.277064,-0.267075,-0.253701,-0.272553,-0.25499,-0.278353,-0.289954,-0.258696,-0.255957,-0.288504,-0.285604,-0.244195,-0.269169,-0.228244,-0.263691,-0.283509,-0.235172,-0.267075,-0.260146,-0.241456,-0.26933,-0.279159,-0.277548,-0.276742,-0.258052,-0.301072,-0.288665,-0.223571,-0.257407,-0.271908,-0.252251,-0.27497,-0.258696,-0.307033,-0.290115,-0.278998,-0.301394,-0.263691,-0.319601,-0.29076,-0.318473,-0.287537,-0.313801,-0.335714,-0.333941,-0.318473,-0.335069,-0.323307,-0.324274,-0.354243,-0.326207,-0.348442,-0.330074,-0.354082,-0.356337,-0.375995,-0.380184,-0.392913,-0.388885,-0.374706,-0.424654,-0.416437,-0.401452,-0.438511,-0.404352,-0.431744,-0.438027,-0.425621,-0.424976,-0.439961,-0.41982,-0.437544,-0.465096,-0.440122,-0.473475,-0.444795,-0.467996,-0.475086,-0.48717,-0.460585,-0.500544,-0.47992,-0.495065,-0.504894,-0.477342,-0.515689,-0.512628,-0.519073,-0.526162,-0.517139,-0.518912,-0.564993,-0.54598,-0.56306,-0.563543,-0.559837,-0.596735,-0.588517,-0.583522,-0.59174,-0.590612,-0.581106,-0.595768,-0.626543,-0.56596,-0.624931,-0.641366,-0.575466,-0.644105,-0.62477,-0.614136,-0.628476,-0.643138,-0.651194,-0.633793,-0.623481,-0.655384,-0.667951,-0.630893,-0.654095,-0.665535,-0.681486,-0.66344,-0.693087,-0.671496,-0.703721,-0.694376,-0.671013,-0.695826,-0.69647,-0.683903,-0.701949,-0.680358,-0.713066,-0.68922,-0.680841,-0.716127,-0.701143,-0.673268,-0.718867,-0.726601,-0.684708,-0.711455,-0.707266,-0.716933,-0.706138,-0.719511,-0.704365,-0.712905,-0.710488,-0.714355,-0.726601,-0.719833,-0.710971,-0.720961,-0.734334,-0.728373,-0.734173,-0.725312,-0.737557,-0.749158,-0.728534,-0.738524,-0.724345,-0.74368,-0.750447,-0.720156,-0.750286,-0.73369,-0.746902,-0.728534,-0.752219,-0.737235,-0.723056,-0.757375,-0.729178,-0.742391,-0.744002,-0.730629,-0.740296,-0.764142,-0.728212,-0.740135,-0.73369,-0.728373,-0.749319,-0.69792,-0.726439,-0.742068,-0.73369,-0.740135,-0.728212,-0.738201,-0.733207,-0.73804,-0.73224,-0.729823,-0.740941,-0.7208,-0.754958,-0.707427,-0.725634,-0.754636,-0.742391,-0.697437,-0.745291,-0.719833,-0.721445,-0.73079,-0.707266,-0.736107,-0.705493,-0.734496,-0.713066,-0.730145,-0.73369,-0.721122,-0.729501,-0.701626,-0.758986,-0.713549,-0.721283,-0.721122,-0.7179,-0.710327,-0.731756,-0.697759,-0.704527,-0.731756,-0.717739,-0.718222,-0.707105,-0.699854,-0.707749,-0.685192,-0.702915,-0.696148,-0.711294,-0.677458,-0.719511,-0.708716,-0.673107,-0.716127,-0.695504,-0.698243,-0.704527,-0.673268,-0.713711,-0.698565,-0.693892,-0.697276,-0.715,-0.699048,-0.711777,-0.700337,-0.704849,-0.699048,-0.707588,-0.715161,-0.695665,-0.694537,-0.702754,-0.695665,-0.698243,-0.713388,-0.701465,-0.690992,-0.725473,-0.687931,-0.68922,-0.689703,-0.740779,-0.717094,-0.692603,-0.71081,-0.690509,-0.709199,-0.712744,-0.709199,-0.726762,-0.698565,-0.731595,-0.703882,-0.718383,-0.690992,-0.686481,-0.718705,-0.689059,-0.723539,-0.704043,-0.698082,-0.706299,-0.705171,-0.683903,-0.701143,-0.687609,-0.705654,-0.686158,-0.681808,-0.724506,-0.666824,-0.688736,-0.667629,-0.668113,-0.674396,-0.681164,-0.674719,-0.649422,-0.681325,-0.650067,-0.672302,-0.695504,-0.624287,-0.664084,-0.70791,-0.626865,-0.666824,-0.651033,-0.652,-0.65635,-0.652483,-0.659573,-0.681969,-0.639755,-0.65055,-0.653289,-0.664407,-0.658606,-0.641044,-0.63911,-0.665857,-0.631054,-0.640721,-0.657801,-0.665373,-0.607852,-0.659734,-0.643461,-0.642977,-0.642816,-0.668757,-0.647328,-0.644427,-0.640399,-0.631054,-0.665212,-0.614297,-0.653128,-0.647005,-0.643299,-0.645877,-0.640721,-0.651033,-0.649422,-0.656512,-0.640721,-0.647489,-0.61333,-0.634115,-0.645233,-0.622676,-0.673268,-0.665535,-0.633471,-0.668113,-0.636854,-0.631054,-0.651356,-0.622998,-0.640399,-0.651033,-0.641205,-0.645394,-0.661023,-0.624448,-0.652322,-0.633471,-0.623803,-0.64201,-0.665696,-0.626704,-0.623803,-0.651356,-0.627187,-0.626543,-0.643944,-0.627026,-0.621709,-0.630087,-0.600763,-0.636049,-0.620742,-0.618003,-0.635404,-0.643944,-0.642655,-0.595768,-0.609302,-0.622514,-0.64201,-0.613008,-0.656995,-0.606885,-0.613008,-0.616875,-0.578689,-0.598024,-0.617036,-0.583361,-0.598185,-0.620903,-0.605435,-0.607369,-0.62622,-0.566282,-0.593834,-0.576111,-0.597218,-0.571116,-0.596573,-0.594157,-0.591901,-0.564026,-0.584811,-0.613975,-0.572083,-0.606885,-0.600279,-0.581267,-0.622837,-0.603341,-0.615425,-0.589967,-0.586745,-0.555326,-0.580783,-0.592062,-0.56306,-0.603824,-0.574016,-0.587228,-0.61188,-0.579333,-0.583361,-0.585456,-0.580783,-0.576594,-0.607046,-0.554842,-0.584167,-0.577722,-0.574983,-0.57595,-0.594801,-0.561771,-0.583039,-0.57321,-0.543886,-0.593512,-0.546947,-0.577077,-0.576916,-0.561126,-0.590451,-0.569827,-0.560321,-0.568699,-0.574983,-0.536474,-0.581267,-0.573049,-0.547914,-0.587712,-0.556776,-0.560482,-0.58755,-0.565477,-0.554842,-0.591095,-0.563543,-0.55452,-0.61333,-0.536796,-0.594479,-0.563865,-0.566443,-0.596412,-0.598024,-0.572566,-0.585778,-0.589806,-0.595607,-0.628637,-0.579978,-0.610108,-0.589967,-0.598346,-0.584973,-0.590451,-0.606563,-0.5803,-0.601729,-0.568699,-0.599474,-0.66344,-0.566927,-0.630571,-0.586423,-0.593834,-0.628154,-0.621387,-0.627993,-0.61333,-0.62187,-0.617197,-0.616553,-0.619936,-0.639432,-0.610108,-0.626865,-0.617842,-0.630409,-0.623159,-0.622998,-0.626543,-0.589967,-0.619131,-0.627993,-0.602213,-0.627993,-0.583522,-0.621225,-0.627509,-0.590612,-0.615747,-0.597057,-0.579978,-0.608658,-0.633954,-0.5774,-0.616069,-0.609463,-0.576755,-0.617358,-0.62622,-0.573372,-0.618647,-0.60044,-0.604952,-0.601085,-0.622998,-0.585295,-0.597862,-0.586262,-0.599796,-0.607208,-0.579333,-0.59609,-0.611397,-0.564832,-0.593512,-0.617197,-0.579494,-0.608819,-0.589806,-0.584811,-0.584006,-0.601246,-0.586262,-0.601246,-0.612686,-0.571277,-0.652645,-0.579011,-0.585939,-0.582556,-0.573694,-0.596251,-0.587228,-0.590773,-0.593029,-0.619453,-0.5832,-0.598668,-0.591256,-0.580139,-0.585295,-0.575466,-0.587228,-0.593512,-0.580622,-0.591095,-0.588517,-0.585939,-0.599313,-0.611075,-0.565799,-0.60318,-0.576433,-0.585134,-0.578366,-0.579333,-0.579011,-0.568054,-0.589001,-0.570632,-0.575144,-0.583845,-0.563704,-0.590451,-0.591417,-0.591901,-0.56886,-0.596412,-0.557259,-0.61333,-0.564993,-0.553392,-0.576916,-0.522134,-0.581106,-0.579817,-0.558709,-0.555648,-0.562576,-0.558709,-0.573694,-0.557581,-0.57031,-0.558548,-0.552748,-0.574016,-0.547431,-0.525195,-0.554359,-0.56161,-0.556292,-0.548236,-0.585617,-0.530996,-0.562576,-0.557581,-0.539052,-0.574499,-0.556131,-0.56741,-0.563543,-0.542597,-0.585778,-0.527935,-0.542919,-0.536313,-0.586262,-0.550331,-0.559837,-0.547108,-0.542114,-0.56161,-0.537924,-0.556615,-0.550814,-0.524873,-0.539536,-0.551781,-0.546464,-0.552748,-0.527612,-0.530029,-0.54018,-0.53583,-0.515689,-0.519556,-0.558226,-0.494421,-0.515045,-0.560965,-0.494421,-0.575144,-0.546786,-0.549203,-0.513756,-0.537763,-0.513272,-0.547592,-0.52874,-0.511983,-0.512306,-0.520684,-0.529385,-0.537441,-0.534702,-0.519395,-0.535024,-0.515528,-0.550009,-0.509889,-0.506666,-0.563543,-0.505377,-0.548236,-0.529062,-0.504088,-0.515045,-0.534541,-0.519556,-0.517462,-0.532929,-0.530351,-0.512789,-0.546786,-0.521329,-0.553553,-0.530835,-0.50296,-0.506988,-0.561448,-0.507955,-0.552587,-0.52439,-0.524229,-0.540663,-0.510372,-0.536152,-0.516817,-0.531479,-0.528901,-0.515528,-0.519395,-0.508761,-0.51005,-0.535991,-0.518428,-0.517623,-0.500544,-0.515206,-0.492487,-0.496515,-0.511661,-0.501027,-0.508922,-0.516173,-0.479436,-0.523101,-0.491843,-0.459779,-0.526162,-0.483142,-0.497643,-0.480564,-0.506827,-0.475408,-0.49571,-0.489426,-0.509405,-0.494904,-0.492648,-0.471702,-0.499093,-0.501188,-0.485237,-0.525034,-0.484753,-0.515528,-0.495549,-0.482014,-0.513272,-0.496193,-0.478631,-0.510211,-0.456879,-0.523262,-0.464935,-0.471863,-0.47847,-0.489265,-0.478631,-0.454301,-0.487009,-0.464935,-0.47283,-0.491682,-0.426265,-0.479436,-0.443989,-0.458651,-0.482498,-0.480242,-0.4398,-0.465096,-0.452206,-0.469447,-0.465257,-0.443344,-0.451562,-0.463968,-0.461874,-0.440766,-0.455751,-0.435288,-0.394685,-0.43835,-0.402419,-0.407897,-0.447373,-0.384856,-0.423204,-0.388079,-0.399519,-0.413053,-0.404514,-0.404675,-0.414987,-0.375028,-0.387112,-0.420948,-0.366327,-0.399196,-0.373417,-0.413214,-0.388562,-0.450434,-0.414181,-0.393879,-0.430616,-0.40693,-0.413375,-0.413537,-0.395813,-0.43835,-0.397102,-0.410153,-0.412731,-0.422559,-0.423204,-0.432388,-0.393074,-0.440605,-0.449789,-0.441089,-0.437866,-0.429488,-0.421915,-0.423848,-0.404514,-0.405964,-0.412409,-0.363105,-0.387596,-0.415792,-0.390335,-0.385018,-0.389529,-0.411603,-0.394524,-0.397263,-0.389207,-0.373417,-0.398552,-0.347798,-0.387273,-0.394524,-0.368583,-0.389207,-0.394363,-0.359721,-0.387918,-0.400163,-0.377284,-0.36955,-0.335552,-0.364716,-0.388079,-0.365199,-0.391624,-0.378573,-0.353437,-0.406447,-0.383406,-0.375511,-0.408703,-0.39823,-0.38389,-0.413375,-0.397585,-0.386629,-0.390174,-0.381151,-0.408058,-0.417887,-0.377284,-0.382923,-0.41402,-0.392429,-0.396457,-0.404675,-0.381151,-0.406447,-0.41112,-0.3797,-0.368744,-0.422559,-0.358593,-0.417403,-0.383084,-0.376639,-0.426749,-0.392268,-0.407253,-0.392752,-0.39114,-0.407575,-0.40403,-0.372933,-0.404191,-0.41982,-0.40403,-0.414503,-0.387112,-0.415309,-0.42401,-0.399841,-0.410797,-0.418048,-0.422882,-0.423526,-0.449628,-0.41547,-0.410797,-0.440928,-0.410636,-0.41112,-0.448339,-0.421432,-0.368583,-0.435127,-0.434966,-0.416598,-0.410636,-0.386307,-0.4398,-0.387273,-0.441894,-0.376639,-0.421593,-0.385984,-0.4369,-0.395329,-0.393396,-0.417565,-0.398552,-0.397585,-0.40548,-0.355532,-0.412409,-0.384856,-0.395813,-0.410153,-0.389207,-0.397424,-0.418048,-0.414664,-0.381634,-0.413859,-0.377767,-0.398552,-0.417403,-0.414503,-0.384695,-0.444311,-0.412248,-0.396941,-0.430616,-0.408381,-0.434966,-0.417887,-0.424493,-0.455751,-0.435772,-0.450434,-0.451562,-0.423204,-0.439961,-0.449145,-0.449467,-0.449628,-0.428843,-0.434644,-0.440928,-0.416114,-0.421915,-0.440122,-0.460101,-0.450756,-0.45124,-0.461713,-0.407575,-0.454301,-0.439961,-0.435933,-0.467996,-0.453656,-0.42401,-0.475569,-0.436094,-0.422559,-0.475408,-0.432227,-0.446245,-0.461068,-0.468641,-0.474925,-0.453818,-0.467835,-0.46284,-0.492004,-0.461229,-0.49571,-0.456073,-0.505216,-0.490393,-0.441411,-0.494421,-0.479436,-0.501349,-0.487654,-0.502316,-0.525679,-0.505861,-0.513756,-0.462035,-0.52439,-0.474441,-0.495226,-0.50296,-0.489104,-0.452367,-0.502155,-0.477986,-0.430293,-0.464452,-0.411442,-0.447373,-0.41692,-0.422721,-0.382278,-0.387757,-0.359238,-0.339903,-0.335552,-0.357949,-0.323307,-0.325079,-0.298011,-0.31944,-0.284476,-0.278998,-0.270136,-0.25209,-0.220349,-0.201981,-0.159927,-0.158477,-0.161055,-0.109656,-0.108528,-0.056808,-0.035539,-0.011209,0.052757,0.081437,0.094488,0.122202,0.154588,0.166672,0.227899,0.287193,0.313295,0.35406,0.406264,0.437522,0.489727,0.520502,0.564005,0.58189,0.624105,0.655847,0.67776,0.707084,0.718847,0.742049,0.757194,0.770568,0.788614,0.792803,0.800698,0.80666,0.796025,0.793286,0.77089,0.740921,0.717558,0.675021,0.668092,0.588819,0.517924,0.477159,0.452024,0.341009,0.28671,0.252712,0.124296,0.098677,0.012154,-0.054068,-0.12738,-0.176845,-0.255957,-0.245645,-0.383245,-0.382601,-0.455751,-0.516495,-0.532285,-0.60318,-0.616231,-0.657639,-0.679391,-0.704527,-0.710488,-0.740135,-0.75093,-0.746097,-0.767365,-0.762048,-0.756408,-0.75802,-0.758986,-0.739652,-0.748836,-0.738685,-0.730467,-0.733529,-0.691475,-0.691153,-0.685675,-0.647811,-0.652645,-0.623159,-0.611236,-0.606563,-0.587389,-0.574822,-0.580461,-0.572405,-0.542758,-0.566121,-0.517139,-0.513917,-0.520523,-0.493937,-0.496677,-0.540341,-0.51295,-0.494904,-0.491037,-0.462196,-0.497966,-0.492004,-0.45704,-0.487331,-0.455912,-0.478147,-0.504088,-0.483464,-0.450756,-0.499416,-0.481692,-0.465902,-0.467352,-0.458007,-0.478792,-0.469769,-0.473636,-0.466707,-0.474119,-0.449951,-0.460262,-0.493615,-0.437705,-0.46993,-0.464935,-0.480403,-0.465418,-0.460907,-0.458007,-0.470574,-0.472991,-0.436416,-0.478792,-0.448339,-0.459779,-0.48862,-0.433194,-0.492971,-0.478631,-0.450273,-0.487976,-0.478308,-0.485076,-0.459457,-0.500221,-0.48572,-0.491359,-0.453495,-0.494743,-0.493615,-0.516978,-0.488298,-0.472186,-0.494421,-0.477986,-0.508439,-0.498288,-0.52004,-0.509083,-0.498127,-0.509405,-0.49716,-0.476536,-0.512789,-0.532285,-0.488459,-0.509566,-0.553553,-0.477986,-0.539697,-0.50151,-0.495549,-0.524712,-0.524712,-0.483142,-0.503121,-0.514722,-0.478147,-0.518912,-0.481853,-0.519395,-0.508922,-0.499577,-0.47283,-0.499577,-0.471863,-0.489909,-0.463968,-0.47138,-0.483948,-0.457201,-0.478308,-0.465741,-0.4485,-0.471058,-0.430455,-0.448662,-0.438511,-0.472186,-0.418531,-0.426749,-0.443183,-0.42836,-0.481692,-0.440928,-0.413053,-0.425137,-0.441894,-0.429488,-0.432549,-0.419659,-0.415953,-0.456879,-0.422076,-0.459296,-0.436416,-0.430455,-0.437383,-0.484431,-0.432388,-0.441733,-0.445278,-0.454784,-0.466063,-0.451078,-0.437222,-0.433838,-0.436416,-0.428521,-0.418209,-0.409347,-0.447695,-0.448984,-0.38969,-0.413537,-0.380828,-0.402097,-0.405641,-0.417242,-0.403225,-0.375511,-0.413375,-0.422882,-0.402902,-0.402741,-0.364394,-0.414181,-0.351181,-0.408219,-0.407092,-0.380023,-0.388885,-0.407736,-0.366972,-0.380023,-0.392107,-0.380184,-0.407575,-0.352309,-0.372772,-0.404675,-0.376156,-0.393879,-0.392913,-0.390174,-0.41257,-0.379217,-0.390496,-0.387918,-0.396457,-0.412248,-0.39678,-0.3797,-0.388401,-0.391785,-0.381956,-0.368422,-0.417887,-0.315734,-0.370194,-0.41112,-0.355371,-0.360366,-0.381634,-0.355371,-0.376317,-0.335552,-0.368422,-0.363588,-0.379217,-0.344253,-0.353759,-0.356337,-0.337003,-0.383729,-0.355371,-0.351181,-0.343609,-0.348442,-0.36536,-0.372611,-0.398069,-0.365199,-0.374383,-0.357949,-0.393235,-0.366327,-0.353437,-0.360849,-0.385984,-0.334747,-0.390335,-0.357465,-0.362138,-0.426265,-0.324113,-0.387918,-0.360527,-0.352793,-0.368905,-0.357788,-0.376317,-0.344737,-0.378895,-0.375833,-0.354082,-0.383567,-0.327335,-0.379056,-0.360527,-0.355854,-0.380023,-0.389368,-0.375028,-0.388079,-0.381312,-0.35666,-0.377606,-0.317668,-0.393074,-0.339742,-0.366166,-0.373578,-0.366972,-0.383406,-0.374061,-0.364716,-0.330235,-0.422559,-0.328946,-0.37245,-0.383245,-0.390818,-0.423043,-0.421109,-0.386468,-0.405319,-0.41402,-0.40693,-0.438188,-0.380184,-0.419015,-0.444633,-0.435611,-0.424332,-0.423043,-0.438672,-0.430455,-0.45704,-0.414342,-0.431099,-0.425137,-0.433194,-0.439639,-0.419498,-0.438672,-0.435933,-0.44415,-0.421432,-0.434966,-0.4456,-0.462679,-0.495388,-0.447534,-0.46703,-0.464291,-0.468963,-0.506827,-0.46993,-0.489265,-0.503283,-0.521329,-0.523262,-0.515206,-0.531963,-0.515045,-0.540663,-0.514078,-0.542436,-0.538891,-0.535346,-0.535507,-0.571599,-0.559515,-0.55307,-0.592706,-0.540825,-0.592384,-0.555326,-0.562093,-0.574822,-0.583845,-0.562254,-0.598668,-0.59609,-0.578205,-0.593995,-0.614297,-0.588678,-0.609786,-0.597862,-0.605758,-0.60608,-0.646683,-0.639432,-0.648133,-0.638627,-0.649744,-0.655867,-0.658445,-0.667951,-0.677619,-0.678102,-0.689381,-0.698404,-0.699048,-0.70646,-0.699048,-0.707749,-0.710488,-0.702593,-0.713388,-0.729017,-0.708877,-0.7237,-0.732723,-0.727084,-0.732562,-0.734496,-0.730467,-0.731595,-0.727728,-0.7237,-0.746419,-0.731756,-0.741585,-0.71935,-0.734657,-0.728856,-0.729501,-0.740941,-0.724667,-0.730951,-0.723056,-0.72934,-0.739974,-0.750286,-0.729984,-0.742068,-0.729984,-0.747869,-0.732401,-0.737396,-0.763176,-0.748352,-0.741907,-0.757375,-0.76092,-0.760437,-0.767204,-0.75657,-0.758181,-0.781705,-0.78525,-0.78106,-0.802812,-0.788794,-0.800556,-0.789922,-0.800879,-0.803134,-0.80974,-0.802007,-0.808129,-0.807485,-0.804907,-0.821825,-0.806035,-0.836809,-0.813607,-0.828109,-0.83117,-0.826175,-0.823758,-0.832298,-0.852277,-0.830203,-0.842771,-0.835681,-0.828592,-0.846799,-0.841482,-0.839226,-0.846477,-0.848249,-0.849699,-0.84406,-0.85695,-0.850344,-0.866456,-0.848249,-0.868873,-0.868873,-0.866778,-0.866617,-0.876285,-0.876929,-0.898036,-0.885308,-0.893042,-0.905609,-0.896264,-0.916405,-0.905932,-0.91721,-0.9301,-0.931711,-0.947663,-0.949596,-0.95298,-0.966675,-0.970381,-0.979082,-0.99036,-1.004862,-1.010501,-1.005506,-1.021619,-1.027097,-1.011468,-1.035959,-1.030641,-1.019202,-1.032736,-1.01034,-1.028386,-1.025808,-1.021619,-1.025163,-1.025485,-1.025647,-1.029191,-1.027097,-1.037086,-1.021619,-1.015012,-1.01179,-1.006956,-0.994389,-1.002123,-0.999545,-0.990038,-0.999706,-0.996644,-0.987944,-0.981982,-0.9931,-0.963453,-0.986977,-0.966514,-0.965386,-0.983916,-0.989071,-0.953463,-0.97312,-0.981982,-0.97602,-1.002606,-0.96877,-0.970381,-0.994711,-0.980049,-1.00035,-0.996967,-0.999545,-1.006473,-1.000995,-1.018718,-1.016624,-0.998256,-1.026452,-1.02613,-1.020974,-1.029191,-1.02033,-1.031125,-1.018718,-1.040148,-1.023391,-1.014207,-1.041437,-1.028708,-1.030158,-1.029997,-1.014851,-1.036764,-1.023391,-1.034508,-1.03612,-1.032414,-1.046109,-1.035153,-1.025647,-1.012112,-1.011145,-1.009212,-1.018235,-0.989394,-1.010018,-0.996644,-1.004862,-1.000028,-0.977632,-0.994872,-0.965386,-1.006956,-0.972959,-0.98601,-0.970381,-0.950724,-0.939929,-0.966997,-0.967481,-0.959586,-0.955074,-0.946212,-0.949596,-0.92865,-0.902226,-0.910765,-0.928489,-0.926394,-0.898198,-0.928167,-0.893364,-0.91141,-0.937028,-0.883535,-0.91431,-0.898359,-0.899003,-0.907704,-0.895942,-0.883052,-0.895297,-0.89143,-0.878218,-0.885147,-0.850988,-0.873868,-0.8584,-0.856466,-0.864845,-0.867906,-0.822953,-0.852761,-0.851955,-0.85985,-0.857755,-0.849216,-0.827464,-0.8642,-0.82972,-0.835198,-0.811513,-0.826175,-0.801523,-0.832781,-0.840032,-0.79959,-0.84406,-0.789278,-0.811513,-0.828109,-0.793306,-0.804746,-0.795078,-0.800395,-0.768009,-0.778644,-0.766882,-0.800556,-0.755119,-0.750447,-0.761242,-0.729662,-0.764787,-0.756247,-0.715322,-0.734657,-0.731918,-0.709199,-0.728051,-0.705493,-0.712583,-0.742552,-0.693892,-0.70066,-0.681647,-0.708394,-0.679875,-0.669401,-0.653772,-0.624448,-0.679069,-0.63476,-0.650872,-0.652645,-0.624126,-0.610913,-0.632987,-0.629926,-0.626865,-0.612525,-0.622676,-0.636049,-0.617197,-0.583522,-0.61043,-0.56306,-0.595768,-0.618003,-0.571116,-0.57176,-0.589484,-0.57031,-0.575144,-0.628476,-0.565638,-0.606402,-0.575788,-0.591095,-0.597701,-0.597701,-0.571438,-0.587873,-0.581106,-0.555487,-0.600118,-0.570955,-0.59319,-0.568699,-0.575144,-0.552103,-0.589162,-0.572083,-0.585295,-0.611075,-0.58465,-0.628637,-0.58465,-0.602052,-0.632504,-0.588839,-0.620903,-0.629765,-0.612364,-0.636532,-0.632021,-0.642655,-0.646361,-0.655867,-0.608335,-0.671496,-0.660056,-0.657317,-0.663118,-0.689542,-0.665373,-0.700498,-0.695987,-0.66924,-0.715322,-0.675363,-0.734496,-0.699371,-0.68358,-0.709038,-0.720478,-0.691959,-0.712744,-0.718867,-0.713227,-0.734979,-0.716611,-0.7237,-0.76237,-0.721283,-0.715966,-0.735301,-0.738363,-0.744324,-0.777677,-0.755442,-0.734496,-0.767687,-0.770587,-0.768976,-0.794111,-0.772521,-0.786378,-0.822147,-0.810063,-0.811352,-0.807485,-0.823275,-0.839226,-0.823919,-0.861622,-0.864362,-0.839871,-0.885952,-0.880313,-0.868551,-0.88128,-0.900937,-0.890947,-0.90287,-0.924944,-0.880957,-0.918338,-0.893686,-0.918016,-0.915599,-0.916566,-0.93155,-0.942668,-0.925911,-0.923494,-0.95588,-0.943957,-0.932839,-0.951691,-0.95588,-0.959908,-0.945407,-0.956363,-0.95878,-0.968125,-0.963614,-0.970381,-0.978115,-0.980693,-0.996483,-0.983432,-0.979565,-1.001639,-0.99745,-0.993422,-1.008245,-0.990522,-1.015496,-1.023713,-1.002284,-1.036281,-1.013401,-1.021457,-1.020974,-1.016463,-1.022102,-1.019363,-1.029514,-1.015657,-1.033058,-1.028547,-1.015335,-1.036603,-1.028386,-1.043692,-1.030158,-1.034186,-1.031769,-1.033219,-1.028547,-1.045948,-1.032092,-1.031769,-1.039664,-1.033703,-1.039664,-1.026452,-1.038859,-1.015818,-1.037248,-1.03467,-1.032897,-1.046432,-1.026936,-1.053682,-1.037892,-1.041759,-1.047721,-1.050621,-1.036442,-1.052071,-1.052554,-1.052715,-1.060611,-1.050782,-1.052232,-1.067217,-1.052071,-1.055293,-1.053843,-1.062061,-1.05916,-1.07624,-1.064477,-1.044015,-1.070278,-1.054971,-1.055777,-1.06625,-1.049815,-1.068344,-1.0619,-1.074306,-1.068022,-1.077206,-1.077851,-1.070922,-1.068344,-1.071245,-1.071889,-1.068828,-1.090257,-1.073662,-1.072534,-1.083007,-1.092191,-1.076723,-1.070761,-1.095252,-1.070761,-1.081557,-1.093158,-1.071889,-1.086229,-1.080107,-1.07624,-1.079301,-1.068667,-1.066733,-1.065928,-1.060772,-1.067055,-1.048526,-1.057388,-1.026613,-1.038053,-1.012434,-1.033542,-0.990038,-1.000672,-1.029997,-0.957652,-0.966353,-0.987299,-0.923172,-0.950885,-0.938479,-0.928811,-0.948468,-0.939768,-0.907382,-0.950563,-0.910121,-0.871612,-0.903676,-0.868551,-0.8613,-0.874996,-0.838259,-0.83697,-0.855983,-0.814252,-0.825208,-0.819247,-0.781866,-0.821986,-0.778644,-0.79959,-0.810063,-0.778966,-0.768171,-0.806035,-0.76527,-0.78815,-0.823919,-0.767687,-0.77381,-0.77816,-0.758664,-0.758825,-0.763337,-0.765431,-0.765431,-0.756086,-0.754314,-0.76527,-0.783155,-0.744969,-0.771715,-0.755281,-0.737557,-0.748513,-0.782349,-0.740457,-0.75657,-0.746419,-0.739168,-0.764304,-0.744002,-0.741585,-0.734657,-0.761887,-0.758181,-0.726923,-0.728051,-0.734173,-0.739813,-0.767526,-0.763015,-0.748191,-0.753992,-0.760598,-0.748191,-0.753347,-0.766076,-0.747063,-0.780577,-0.756086,-0.731756,-0.761403,-0.76092,-0.737074,-0.771715,-0.736751,-0.733207,-0.755603,-0.741585,-0.764948,-0.744002,-0.76092,-0.744969,-0.747224,-0.718544,-0.745613,-0.7179,-0.740618,-0.729501,-0.733368,-0.71226,-0.721928,-0.737879,-0.70501,-0.733045,-0.713388,-0.711777,-0.730306,-0.710649,-0.733368,-0.701949,-0.742713,-0.715483,-0.696309,-0.694698,-0.680358,-0.735301,-0.699854,-0.721283,-0.69212,-0.710971,-0.700015,-0.704849,-0.670046,-0.671335,-0.652322,-0.659734,-0.691959,-0.631537,-0.701143,-0.65909,-0.648939,-0.6462,-0.632021,-0.635565,-0.673591,-0.649583,-0.637177,-0.642494,-0.656512,-0.607691,-0.618647,-0.647972,-0.609786,-0.633954,-0.622676,-0.60463,-0.635243,-0.634921,-0.592706,-0.656189,-0.593029,-0.619936,-0.601729,-0.631698,-0.627831,-0.616553,-0.630571,-0.610269,-0.598829,-0.625415,-0.622353,-0.594479,-0.619131,-0.608174,-0.601568,-0.600279,-0.625092,-0.615103,-0.61897,-0.631376,-0.609947,-0.62042,-0.640077,-0.611558,-0.672946,-0.617842,-0.646039,-0.638143,-0.661345,-0.634276,-0.640238,-0.662634,-0.622676,-0.683419,-0.649422,-0.649905,-0.658928,-0.637177,-0.64475,-0.639916,-0.632504,-0.613169,-0.634599,-0.620742,-0.649261,-0.601891,-0.608335,-0.627831,-0.579172,-0.63186,-0.604791,-0.600602,-0.613975,-0.581267,-0.583845,-0.588678,-0.591579,-0.592384,-0.597379,-0.557098,-0.613008,-0.56596,-0.608819,-0.575466,-0.612847,-0.593995,-0.591256,-0.620259,-0.578044,-0.612202,-0.579817,-0.595284,-0.617681,-0.607208,-0.604146,-0.629604,-0.588356,-0.642816,-0.63186,-0.609141,-0.61897,-0.63476,-0.626059,-0.60044,-0.613653,-0.606563,-0.608819,-0.609786,-0.588517,-0.598185,-0.631054,-0.5803,-0.627026,-0.587389,-0.616875,-0.633793,-0.603502,-0.604469,-0.626865,-0.574983,-0.60898,-0.620259,-0.579172,-0.574499,-0.575788,-0.569182,-0.590451,-0.585617,-0.529868,-0.568377,-0.568699,-0.5832,-0.579011,-0.535507,-0.565799,-0.540825,-0.540663,-0.559676,-0.560804,-0.546142,-0.533091,-0.574338,-0.568216,-0.550975,-0.55307,-0.590128,-0.573049,-0.579011,-0.584167,-0.54163,-0.582556,-0.621709,-0.563704,-0.570149,-0.597057,-0.607046,-0.615586,-0.606885,-0.60044,-0.612364,-0.623642,-0.622998,-0.576755,-0.613814,-0.607691,-0.623159,-0.62912,-0.619936,-0.63766,-0.62187,-0.606402,-0.648616,-0.634921,-0.62767,-0.605113,-0.618486,-0.611075,-0.618003,-0.636693,-0.611236,-0.644427,-0.598829,-0.612202,-0.620903,-0.599313,-0.625737,-0.619453,-0.605919,-0.607691,-0.639594,-0.624287,-0.641205,-0.648133,-0.635404,-0.62912,-0.623159,-0.643461,-0.653289,-0.642655,-0.63621,-0.671979,-0.618164,-0.627348,-0.681969,-0.632021,-0.626381,-0.649744,-0.647166,-0.644266,-0.658445,-0.60318,-0.642977,-0.624126,-0.636854,-0.641366,-0.619614,-0.616553,-0.628154,-0.633954,-0.638143,-0.625576,-0.624287,-0.665212,-0.632826,-0.628315,-0.659734,-0.642816,-0.659251,-0.647811,-0.641527,-0.628959,-0.645072,-0.631537,-0.662312,-0.657156,-0.622031,-0.632504,-0.635243,-0.63766,-0.631054,-0.651517,-0.611236,-0.635565,-0.638305,-0.597057,-0.636532,-0.595284,-0.594157,-0.623481,-0.572244,-0.578689,-0.584167,-0.589806,-0.612364,-0.583522,-0.570471,-0.568054,-0.608013,-0.563221,-0.582556,-0.565154,-0.590451,-0.568054,-0.582717,-0.564671,-0.552748,-0.594479,-0.579655,-0.578044,-0.532929,-0.555326,-0.572566,-0.564993,-0.560159,-0.564993,-0.562415,-0.550653,-0.567249,-0.549203,-0.545658,-0.593512,-0.513756,-0.580622,-0.555648,-0.557581,-0.550814,-0.546786,-0.564026,-0.570955,-0.540341,-0.534702,-0.584006,-0.521973,-0.573855,-0.546142,-0.561287,-0.591901,-0.552103,-0.560321,-0.574983,-0.589806,-0.562576,-0.567571,-0.558065,-0.559837,-0.589645,-0.543403,-0.574338,-0.555165,-0.549686,-0.561771,-0.543725,-0.539052,-0.497966,-0.541147,-0.498449,-0.518751,-0.466385,-0.505861,-0.470252,-0.452206,-0.4427,-0.438833,-0.421754,-0.39678,-0.420787,-0.368744,-0.357949,-0.361332,-0.299138,-0.336358,-0.294144,-0.245162,-0.259502,-0.234366,-0.189574,-0.199241,-0.160894,-0.123513,-0.114812,-0.070986,-0.043112,-0.000575,0.002003,0.07467,0.084337,0.132997,0.173761,0.208403,0.26818,0.252551,0.367111,0.398369,0.437361,0.487471,0.521307,0.549021,0.583502,0.610732,0.636028,0.670509,0.699995,0.729159,0.763639,0.791514,0.8239,0.850647,0.876427,0.903013,0.916225,0.938621,0.943777,0.953123,0.951673,0.941522,0.934593,0.917836,0.876105,0.846458,0.796025,0.744465,0.667287,0.602837,0.577218,0.462175,0.418993,0.358571,0.259802,0.19648,0.136864,0.059846,0.029072,-0.046979,-0.140109,-0.168628,-0.2363,-0.295271,-0.323468,-0.380184,-0.431099,-0.489265,-0.472991,-0.556937,-0.548236,-0.592223,-0.638305,-0.600279,-0.664729,-0.648778,-0.657156,-0.682936,-0.662151,-0.665696,-0.664084,-0.654739,-0.631215,-0.630248,-0.619453,-0.622998,-0.588517,-0.581911,-0.60044,-0.589162,-0.567088,-0.547269,-0.579817,-0.539536,-0.569988,-0.539052,-0.480081,-0.516334,-0.510533,-0.520684,-0.49716,-0.493776,-0.481209,-0.517945,-0.496838,-0.478792,-0.471863,-0.476375,-0.477986,-0.501671,-0.479436,-0.464613,-0.484753,-0.49281,-0.457685,-0.511661,-0.5144,-0.485881,-0.477181,-0.465257,-0.47992,-0.456234,-0.490232,-0.48427,-0.487331,-0.459135,-0.497804,-0.46139,-0.484753,-0.484109,-0.448823,-0.491521,-0.466707,-0.474925,-0.496677,-0.468802,-0.464613,-0.501349,-0.492487,-0.468802,-0.508277,-0.467191,-0.501833,-0.507955,-0.483142,-0.515528,-0.502638,-0.507633,-0.511661,-0.536796,-0.526162,-0.527451,-0.516011,-0.507472,-0.499899,-0.489748,-0.499738,-0.495871,-0.488137,-0.490232,-0.496677,-0.498127,-0.530513,-0.518751,-0.480886,-0.516817,-0.500866,-0.503283,-0.523584,-0.505699,-0.496032,-0.511661,-0.505699,-0.519717,-0.501671,-0.483787,-0.515045,-0.505861,-0.501027,-0.473636,-0.529062,-0.484431,-0.501349,-0.515689,-0.486687,-0.491359,-0.499899,-0.477825,-0.506022,-0.478308,-0.483142,-0.48717,-0.475408,-0.473636,-0.470252,-0.451562,-0.436577,-0.48572,-0.459296,-0.460907,-0.470736,-0.455751,-0.443183,-0.476214,-0.427554,-0.477664,-0.468319,-0.452206,-0.486203,-0.455268,-0.467835,-0.486526,-0.444472,-0.452529,-0.477664,-0.464774,-0.461229,-0.423526,-0.433194,-0.496193,-0.444633,-0.437061,-0.442217,-0.443183,-0.472991,-0.449628,-0.460907,-0.435288,-0.438994,-0.443989,-0.441894,-0.458329,-0.412409,-0.446567,-0.430777,-0.447211,-0.426104,-0.414987,-0.448662,-0.42691,-0.422559,-0.396618,-0.452045,-0.412892,-0.414503,-0.450273,-0.408058,-0.407414,-0.430455,-0.406608,-0.412409,-0.409347,-0.380828,-0.404836,-0.410797,-0.40967,-0.424654,-0.389851,-0.39114,-0.40403,-0.406769,-0.369389,-0.413375,-0.36955,-0.379217,-0.391463,-0.380184,-0.392752,-0.382117,-0.374383,-0.398552,-0.352793,-0.342803,-0.376639,-0.378573,-0.340386,-0.39823,-0.383567,-0.344575,-0.393235,-0.339097,-0.356337,-0.366166,-0.371805,-0.337164,-0.365038,-0.352954,-0.330396,-0.354887,-0.321374,-0.352954,-0.349248,-0.328946,-0.354243,-0.368422,-0.324274,-0.313156,-0.32524,-0.319923,-0.328946,-0.304617,-0.338453,-0.329913,-0.295916,-0.349892,-0.313156,-0.313478,-0.329752,-0.314284,-0.29656,-0.306067,-0.325563,-0.300105,-0.350698,-0.289149,-0.311062,-0.31509,-0.316056,-0.291566,-0.323468,-0.311706,-0.26353,-0.341192,-0.283832,-0.299138,-0.308,-0.289793,-0.29656,-0.328463,-0.279803,-0.320246,-0.304133,-0.289149,-0.296883,-0.28077,-0.331041,-0.3109,-0.291727,-0.271103,-0.259824,-0.280931,-0.308645,-0.266269,-0.270297,-0.273842,-0.294788,-0.289471,-0.288182,-0.255957,-0.287537,-0.248707,-0.277548,-0.2334,-0.261435,-0.28077,-0.245001,-0.27642,-0.268364,-0.226955,-0.247579,-0.270781,-0.234205,-0.245162,-0.248384,-0.230983,-0.265141,-0.212776,-0.266914,-0.206975,-0.255957,-0.263852,-0.207136,-0.26208,-0.257407,-0.22486,-0.260146,-0.248707,-0.222282,-0.259663,-0.240167,-0.243228,-0.248707,-0.230338,-0.2421,-0.228244,-0.274648,-0.220188,-0.234366,-0.225988,-0.214065,-0.245806,-0.228727,-0.24629,-0.243551,-0.238072,-0.228244,-0.220188,-0.21487,-0.252251,-0.218899,-0.213904,-0.240167,-0.2334,-0.209392,-0.243067,-0.214709,-0.196986,-0.216643,-0.227922,-0.175395,-0.228727,-0.191991,-0.208425,-0.215998,-0.19328,-0.198114,-0.209714,-0.20327,-0.19038,-0.225344,-0.177812,-0.195052,-0.197469,-0.176362,-0.218737,-0.197147,-0.175073,-0.198919,-0.194891,-0.199241,-0.193441,-0.160088,-0.217126,-0.201014,-0.179745,-0.203753,-0.198758,-0.193924,-0.195697,-0.209553,-0.199241,-0.192152,-0.235817,-0.193924,-0.220188,-0.189735,-0.191669,-0.229694,-0.205042,-0.213259,-0.230983,-0.185224,-0.205525,-0.196502,-0.19038,-0.203753,-0.195697,-0.225505,-0.19328,-0.211326,-0.212937,-0.190702,-0.187318,-0.230661,-0.192313,-0.223732,-0.186029,-0.218254,-0.18329,-0.186674,-0.203108,-0.181679,-0.229694,-0.187479,-0.21342,-0.198919,-0.220671,-0.220671,-0.201819,-0.218899,-0.210198,-0.237267,-0.212776,-0.211165,-0.2392,-0.227116,-0.217287,-0.234528,-0.228244,-0.237267,-0.229372,-0.256279,-0.262885,-0.235817,-0.271586,-0.260146,-0.264336,-0.252251,-0.261274,-0.247579,-0.256924,-0.305583,-0.267558,-0.296883,-0.322824,-0.271908,-0.317345,-0.312673,-0.336519,-0.314767,-0.335714,-0.330558,-0.360043,-0.343609,-0.363427,-0.380345,-0.33378,-0.365199,-0.354243,-0.37535,-0.361816,-0.392107,-0.366811,-0.380506,-0.376478,-0.372772,-0.384212,-0.389851,-0.407736,-0.430777,-0.376317,-0.422076,-0.404675,-0.416437,-0.409347,-0.429004,-0.431099,-0.408058,-0.470091,-0.436738,-0.429166,-0.459296,-0.42981,-0.456718,-0.491198,-0.439961,-0.498771,-0.471541,-0.461068,-0.480725,-0.477664,-0.453979,-0.495065,-0.491198,-0.471541,-0.469769,-0.500705,-0.470091,-0.521812,-0.484431,-0.497966,-0.516495,-0.47573,-0.530351,-0.477342,-0.528901,-0.517462,-0.501833,-0.507955,-0.498771,-0.508761,-0.498127,-0.490554,-0.524551,-0.480564,-0.500866,-0.492648,-0.535507,-0.511339,-0.536958,-0.506183,-0.559998,-0.502799,-0.525195,-0.572244,-0.501349,-0.557098,-0.546142,-0.532446,-0.552425,-0.543564,-0.56741,-0.575627,-0.558226,-0.569666,-0.560965,-0.557098,-0.584811,-0.562737,-0.559837,-0.580622,-0.570149,-0.560321,-0.550492,-0.538085,-0.532124,-0.569827,-0.577883,-0.526807,-0.569827,-0.551136,-0.548881,-0.562093,-0.550492,-0.532929,-0.58465,-0.548558,-0.552264,-0.564188,-0.519878,-0.538085,-0.570955,-0.550814,-0.576755,-0.555326,-0.558548,-0.55452,-0.536474,-0.554842,-0.572727,-0.566443,-0.545819,-0.562254,-0.508761,-0.539858,-0.550009,-0.523423,-0.533413,-0.551298,-0.554359,-0.536152,-0.554681,-0.535669,-0.559354,-0.550814,-0.550492,-0.554359,-0.560804,-0.522779,-0.563543,-0.564832,-0.562093,-0.576111,-0.522779,-0.570149,-0.536152,-0.551298,-0.533896,-0.562576,-0.557743,-0.56451,-0.549203,-0.540341,-0.558226,-0.540825,-0.53164,-0.549525,-0.526968,-0.55017,-0.550331,-0.539213,-0.55162,-0.561448,-0.53438,-0.54308,-0.561771,-0.503605,-0.588034,-0.553231,-0.554037,-0.561126,-0.55307,-0.543403,-0.575627,-0.572244,-0.545014,-0.594962,-0.535024,-0.546947,-0.562093,-0.584167,-0.567893,-0.586906,-0.561287,-0.595446,-0.596896,-0.586262,-0.611719,-0.605435,-0.574983,-0.611558,-0.560643,-0.624609,-0.610269,-0.586745,-0.613975,-0.630248,-0.597057,-0.596573,-0.617681,-0.588678,-0.627187,-0.608819,-0.583684,-0.613653,-0.638788,-0.597379,-0.601891,-0.617842,-0.560159,-0.630087,-0.612525,-0.606563,-0.622031,-0.599635,-0.632504,-0.619614,-0.63766,-0.645394,-0.611719,-0.617197,-0.633954,-0.654256,-0.652967,-0.645555,-0.636371,-0.66489,-0.631054,-0.642494,-0.637338,-0.655545,-0.619614,-0.635404,-0.667629,-0.625254,-0.671657,-0.670207,-0.631054,-0.666985,-0.659895,-0.654578,-0.675041,-0.658123,-0.676008,-0.668596,-0.697759,-0.686803,-0.689864,-0.677941,-0.700821,-0.70356,-0.68922,-0.685675,-0.702754,-0.698243,-0.69792,-0.725312,-0.680519,-0.698404,-0.698565,-0.692603,-0.685997,-0.705977,-0.711777,-0.681325,-0.711294,-0.719672,-0.719833,-0.712099,-0.707266,-0.743196,-0.714838,-0.727406,-0.744969,-0.736268,-0.741424,-0.761726,-0.740457,-0.767526,-0.77671,-0.766559,-0.775421,-0.77381,-0.783638,-0.787505,-0.788472,-0.790406,-0.777516,-0.7867,-0.780738,-0.798945,-0.7925,-0.792661,-0.810546,-0.792661,-0.793145,-0.814413,-0.788311,-0.785572,-0.802168,-0.778966,-0.794111,-0.785894,-0.769943,-0.804101,-0.793467,-0.777677,-0.810063,-0.7867,-0.780094,-0.776549,-0.765915,-0.753025,-0.794917,-0.754797,-0.784122,-0.78106,-0.771876,-0.773326,-0.784122,-0.777355,-0.761242,-0.788955,-0.75947,-0.771071,-0.768171,-0.766882,-0.784605,-0.758664,-0.757214,-0.747224,-0.754314,-0.753347,-0.772199,-0.765754,-0.768493,-0.769459,-0.751091,-0.772682,-0.763176,-0.781705,-0.75093,-0.780416,-0.771876,-0.777838,-0.787505,-0.756408,-0.804262,-0.779449,-0.782994,-0.787022,-0.775582,-0.764142,-0.785089,-0.79395,-0.777032,-0.807485,-0.773649,-0.808774,-0.788311,-0.778805,-0.811352,-0.757697,-0.800073,-0.785572,-0.790889,-0.778805,-0.798945,-0.789761,-0.796045,-0.822792,-0.796206,-0.81683,-0.827625,-0.821503,-0.833909,-0.836165,-0.829398,-0.842449,-0.845349,-0.844543,-0.869356,-0.872257,-0.879024,-0.870806,-0.884502,-0.874673,-0.890302,-0.896103,-0.88128,-0.901098,-0.910282,-0.911249,-0.922366,-0.918983,-0.937028,-0.939929,-0.939284,-0.949757,-0.943151,-0.952174,-0.957813,-0.945246,-0.951368,-0.962969,-0.956202,-0.968609,-0.966031,-0.975698,-0.982465,-0.971348,-0.97457,-0.978437,-0.986493,-0.981499,-0.983593,-0.981176,-0.979565,-0.98746,-0.985204,-0.98456,-0.977954,-0.9931,-0.980049,-0.989555,-0.964903,-0.977632,-0.978276,-0.965225,-0.976826,-0.963936,-0.969092,-0.966514,-0.949918,-0.959747,-0.957975,-0.963614,-0.933484,-0.953624,-0.937028,-0.940895,-0.970864,-0.925589,-0.943957,-0.949113,-0.922688,-0.93719,-0.940573,-0.921561,-0.937834,-0.933484,-0.93155,-0.924461,-0.935739,-0.948952,-0.939284,-0.93155,-0.930261,-0.943957,-0.923816,-0.942507,-0.943796,-0.939768,-0.970864,-0.944762,-0.970059,-0.967964,-0.957652,-0.963614,-0.975376,-0.978437,-0.965225,-0.985043,-0.991811,-0.990038,-1.001639,-1.002284,-0.969092,-1.001961,-1.004378,-0.993905,-1.016946,-1.009856,-1.004056,-1.025808,-1.006795,-1.020491,-1.008729,-1.013079,-1.015818,-1.012757,-1.026613,-1.014851,-1.02178,-1.027902,-1.03467,-1.024196,-1.034508,-1.042565,-1.028063,-1.029997,-1.037409,-1.037248,-1.044981,-1.058838,-1.026936,-1.041115,-1.045948,-1.033703,-1.050299,-1.055777,-1.039181,-1.050621,-1.057549,-1.04337,-1.052232,-1.038214,-1.039342,-1.058516,-1.026613,-1.066572,-1.038375,-1.041437,-1.047076,-1.049493,-1.048204,-1.053199,-1.05336,-1.043692,-1.053521,-1.060772,-1.044015,-1.063833,-1.04901,-1.055938,-1.066733,-1.057227,-1.065605,-1.061416,-1.048043,-1.056582,-1.066733,-1.043692,-1.062866,-1.055455,-1.044981,-1.055132,-1.050299,-1.030158,-1.045948,-1.022746,-1.039503,-1.052554,-1.017268,-1.041437,-1.037731,-1.034025,-1.051426,-1.014851,-1.019202,-1.037409,-1.008084,-1.043209,-1.035959,-1.024358,-1.013562,-1.046915,-1.023552,-1.033542,-1.036925,-0.997611,-1.019041,-1.033703,-1.003412,-1.018879,-1.021296,-1.003734,-1.033219,-1.01324,-1.020168,-1.005023,-0.996322,-0.996,-0.99036,-0.972315,-0.977148,-1.020491,-0.957008,-0.993744,-1.000189,-0.986332,-1.001317,-0.981176,-0.994227,-0.983916,-0.983916,-0.971187,-1.005184,-0.971026,-0.987138,-0.994066,-0.973604,-0.993905,-0.963292,-0.982143,-0.978437,-0.972315,-0.973926,-0.970864,-0.977793,-0.954269,-0.962325,-0.966031,-0.960069,-0.93864,-0.953946,-0.932839,-0.949757,-0.932678,-0.917532,-0.950563,-0.866617,-0.908509,-0.879668,-0.876607,-0.886274,-0.84406,-0.834231,-0.859206,-0.825531,-0.7954,-0.825531,-0.813285,-0.792822,-0.80104,-0.775421,-0.777032,-0.771876,-0.769459,-0.726117,-0.741746,-0.724184,-0.728695,-0.731918,-0.734818,-0.727084,-0.723539,-0.743196,-0.732562,-0.701143,-0.734012,-0.704527,-0.697115,-0.706782,-0.725956,-0.674074,-0.734496,-0.696148,-0.715322,-0.708716,-0.680197,-0.690831,-0.710488,-0.71081,-0.703238,-0.700337,-0.717094,-0.690025,-0.712099,-0.708232,-0.667629,-0.683419,-0.692926,-0.709199,-0.656834,-0.651678,-0.665857,-0.682936,-0.650228,-0.663118,-0.648939,-0.657639,-0.645072,-0.650872,-0.616875,-0.645716,-0.600118,-0.617197,-0.632665,-0.594318,-0.645233,-0.601729,-0.640238,-0.626543,-0.600118,-0.610913,-0.617358,-0.645233,-0.59609,-0.618325,-0.651517,-0.593995,-0.643461,-0.633471,-0.642816,-0.625737,-0.653934,-0.62912,-0.685031,-0.613975,-0.630248,-0.662634,-0.629926,-0.645233,-0.638949,-0.653934,-0.637177,-0.64201,-0.64475,-0.656834,-0.664407,-0.622192,-0.671335,-0.660379,-0.636854,-0.656028,-0.635888,-0.655706,-0.656189,-0.645877,-0.641044,-0.686642,-0.614942,-0.649422,-0.650711,-0.642816,-0.659412,-0.638627,-0.654095,-0.632182,-0.679875,-0.641527,-0.669079,-0.687609,-0.633954,-0.686964,-0.658123,-0.659412,-0.663601,-0.672302,-0.676974,-0.673752,-0.687447,-0.67343,-0.656189,-0.674235,-0.690992,-0.675363,-0.692764,-0.694537,-0.676169,-0.713711,-0.668596,-0.691153,-0.679069,-0.689864,-0.685031,-0.662473,-0.716611,-0.685353,-0.694537,-0.67923,-0.68922,-0.695826,-0.727728,-0.672946,-0.707427,-0.706621,-0.683419,-0.687125,-0.704527,-0.66924,-0.672946,-0.676491,-0.668757,-0.66779,-0.661668,-0.662957,-0.680036,-0.621064,-0.656189,-0.660701,-0.625898,-0.667951,-0.612202,-0.651839,-0.642494,-0.642333,-0.644427,-0.636854,-0.644588,-0.632343,-0.63911,-0.616714,-0.61897,-0.655223,-0.600118,-0.625092,-0.643461,-0.601729,-0.618486,-0.622192,-0.601085,-0.650711,-0.618164,-0.617842,-0.637982,-0.607369,-0.624126,-0.621064,-0.629926,-0.609624,-0.640399,-0.617197,-0.594479,-0.62042,-0.598346,-0.619292,-0.625254,-0.617197,-0.601891,-0.622837,-0.62622,-0.61897,-0.634438,-0.608819,-0.65345,-0.608174,-0.619614,-0.61752,-0.591901,-0.649422,-0.632826,-0.599635,-0.609624,-0.598185,-0.637338,-0.637821,-0.637821,-0.62042,-0.628959,-0.617842,-0.639916,-0.617681,-0.635243,-0.620581,-0.630248,-0.635243,-0.605113,-0.656673,-0.609302,-0.609302,-0.587389,-0.606241,-0.619453,-0.568377,-0.571921,-0.597379,-0.526484,-0.540663,-0.52874,-0.516334,-0.504249,-0.489909,-0.444956,-0.450595,-0.431099,-0.423687,-0.395168,-0.384051,-0.341192,-0.353115,-0.31799,-0.291888,-0.269975,-0.246934,-0.235333,-0.18764,-0.176362,-0.152999,-0.125285,-0.066636,-0.016688,-0.025066,0.055335,0.05888,0.107378,0.156682,0.171989,0.212754,0.263186,0.290899,0.344231,0.394986,0.428016,0.467492,0.498911,0.539514,0.575284,0.599131,0.631195,0.654074,0.683238,0.714174,0.740921,0.766701,0.796509,0.820194,0.843235,0.868371,0.880616,0.894634,0.902529,0.911069,0.912197,0.89834,0.885611,0.870626,0.820678,0.815361,0.76944,0.72368,0.60912,0.612665,0.498911,0.459758,0.420282,0.327797,0.235311,0.185524,0.112373,0.058074,-0.002025,-0.058419,-0.135275,-0.169272,-0.213098,-0.302844,-0.320568,-0.367455,-0.448339,-0.436577,-0.498288,-0.555648,-0.564832,-0.5803,-0.609786,-0.606402,-0.600924,-0.668113,-0.648939,-0.647328,-0.652645,-0.632665,-0.663762,-0.605435,-0.626059,-0.623965,-0.589645,-0.591256,-0.569666,-0.563543,-0.539052,-0.554842,-0.468641,-0.537119,-0.480564,-0.455429,-0.453656,-0.447856,-0.417726,-0.425943,-0.427554,-0.39678,-0.432871,-0.391785,-0.387596,-0.394524,-0.369227,-0.352148,-0.36536,-0.366005,-0.354887,-0.34377,-0.364555,-0.354082,-0.372128,-0.314929,-0.353921,-0.321374,-0.328141,-0.333136,-0.344092,-0.328624,-0.313478,-0.313156,-0.326046,-0.328141,-0.337164,-0.288182,-0.323146,-0.303328,-0.303005,-0.313317,-0.296238,-0.297849,-0.321696,-0.277548,-0.326046,-0.302361,-0.274648,-0.345381,-0.281576,-0.315895,-0.293338,-0.301072,-0.338936,-0.29511,-0.304294,-0.271586,-0.309289,-0.269492,-0.30365,-0.273359,-0.283026,-0.284637,-0.306389,-0.289471,-0.286087,-0.286571,-0.292532,-0.320246,-0.286087,-0.305744,-0.305906,-0.248868,-0.318957,-0.312673,-0.271103,-0.277387,-0.285121,-0.265947,-0.30075,-0.280448,-0.242262,-0.258374,-0.263852,-0.24919,-0.258857,-0.264497,-0.242423,-0.256924,-0.209714,-0.223088,-0.242906,-0.221799,-0.22631,-0.219543,-0.220993,-0.220993,-0.190702,-0.221477,-0.182162,-0.225988,-0.223088,-0.215515,-0.185224,-0.194891,-0.211809,-0.181034,-0.191024,-0.198114,-0.149293,-0.209392,-0.208103,-0.147037,-0.192152,-0.188768,-0.144943,-0.21487,-0.147682,-0.156221,-0.154932,-0.157027,-0.156543,-0.165083,-0.131569,-0.145587,-0.148971,-0.129958,-0.174267,-0.128186,-0.138981,-0.142526,-0.151226,-0.127702,-0.134147,-0.120452,-0.120774,-0.133342,-0.1045,-0.096766,-0.117874,-0.109173,-0.107723,-0.13882,-0.089194,-0.10595,-0.110623,-0.083554,-0.087905,-0.087421,-0.080332,-0.086938,-0.099505,-0.069214,-0.071631,-0.086616,-0.079365,-0.053102,-0.074531,-0.048912,-0.092577,-0.062125,-0.042145,-0.056808,-0.06712,-0.06003,-0.065831,-0.048107,-0.07292,-0.071953,-0.030867,-0.067925,-0.068731,-0.071792,-0.059869,-0.046173,-0.052779,-0.051168,-0.051329,-0.049557,-0.052457,-0.033767,-0.013465,-0.075337,-0.006053,-0.059708,-0.013304,-0.035056,-0.014271,-0.038923,-0.043918,0.00877,-0.027483,0.014087,-0.044401,0.010865,0.01022,-0.006859,0.01167,0.006353,-0.008309,0.059685,0.005548,0.016504,0.010381,0.008448,0.042767,0.035678,-0.007826,0.025205,0.026333,0.030683,0.031005,0.032294,0.024882,0.020371,0.015376,0.026977,0.045506,0.045506,0.027299,0.047118,0.053885,0.026816,0.045506,0.042606,0.047762,0.047601,0.027622,0.012154,0.02456,0.022788,0.03165,0.008931,0.028427,0.031327,0.048568,0.019888,0.028588,0.051307,0.014571,0.054529,0.019082,0.041478,0.048568,0.02456,0.052274,0.056141,0.029877,0.060813,0.048729,0.026494,0.045184,0.049212,0.022143,0.033905,0.076281,0.07612,0.047762,0.091266,0.041801,0.074025,0.06323,0.033261,0.086271,0.063875,0.047762,0.042123,0.047601,0.047601,0.062102,0.019888,0.059363,0.06613,0.052112,0.096905,0.034872,0.034389,0.039223,0.0331,0.046151,0.043895,0.035678,0.010542,0.042767,0.005225,0.003292,0.028588,0.019243,0.018115,0.012798,0.012476,0.011348,-0.006053,-0.009759,0.006837,-0.018782,-0.011854,0.009737,-0.00122,-0.04134,-0.026516,0.006192,-0.011854,-0.028772,0.007159,-0.040212,-0.000253,-0.029255,0.024882,0.000553,-0.027644,0.008448,-0.008148,-0.012015,0.005386,-0.007342,-0.016365,0.034228,-0.027161,-0.005409,0.004581,-0.011532,0.021821,0.002003,-0.000575,0.020532,0.022143,-0.02845,0.008931,0.006031,-0.008309,0.031811,-0.001703,-0.006215,-0.015399,-0.007342,-0.011371,0.028749,-0.004442,-0.019104,-0.000253,-0.009276,0.032133,0.02456,-0.003637,0.021982,0.004581,0.01022,0.011026,-0.009115,0.023271,0.028911,-0.001542,0.003936,0.003936,-0.002186,0.004259,-0.002025,-0.010887,0.01167,0.001036,-0.024099,-0.023938,-0.018782,-0.037312,0.014087,-0.029416,-0.031833,-0.036989,-0.038278,-0.029416,-0.033767,-0.039567,-0.083715,-0.054391,-0.068731,-0.085004,-0.062447,-0.116746,-0.090805,-0.082265,-0.096928,-0.119968,-0.111268,-0.105467,-0.106273,-0.147843,-0.151871,-0.126252,-0.122707,-0.122707,-0.138336,-0.127058,-0.134953,-0.119485,-0.151549,-0.174912,-0.129636,-0.183612,-0.15171,-0.158155,-0.185224,-0.18184,-0.172334,-0.180712,-0.150421,-0.175073,-0.228083,-0.184096,-0.18764,-0.240811,-0.17894,-0.225344,-0.217126,-0.222604,-0.244517,-0.255957,-0.24774,-0.26063,-0.26788,-0.274809,-0.30075,-0.296399,-0.294466,-0.347315,-0.332491,-0.342964,-0.345059,-0.319923,-0.357465,-0.384534,-0.387596,-0.385984,-0.380345,-0.377606,-0.432388,-0.434805,-0.430455,-0.436255,-0.446889,-0.440928,-0.495226,-0.466707,-0.47847,-0.527612,-0.481692,-0.507794,-0.536635,-0.533735,-0.564671,-0.560804,-0.580622,-0.589001,-0.580783,-0.581267,-0.613008,-0.599957,-0.615103,-0.628798,-0.642494,-0.652161,-0.674396,-0.683097,-0.674396,-0.69647,-0.705654,-0.705654,-0.726439,-0.703882,-0.739813,-0.726923,-0.738201,-0.760598,-0.767043,-0.767204,-0.784122,-0.787344,-0.787022,-0.790889,-0.803618,-0.822953,-0.823436,-0.824725,-0.840354,-0.844221,-0.8555,-0.855177,-0.870806,-0.874673,-0.886274,-0.898198,-0.900453,-0.911732,-0.91286,-0.928328,-0.935417,-0.941218,-0.946212,-0.960069,-0.955558,-0.975054,-0.987299,-0.982143,-1.00744,-1.000995,-1.00035,-1.023391,-1.013401,-1.017268,-1.027419,-1.03612,-1.031125,-1.041598,-1.037892,-1.044981,-1.048043,-1.05771,-1.051426,-1.054166,-1.058999,-1.057871,-1.055293,-1.065122,-1.065605,-1.055777,-1.051749,-1.075434,-1.062705,-1.071728,-1.076562,-1.081396,-1.072534,-1.073178,-1.081396,-1.088968,-1.075112,-1.090418,-1.088968,-1.082684,-1.096863,-1.087196,-1.086229,-1.084779,-1.097025,-1.09928,-1.095252,-1.109914,-1.095897,-1.093963,-1.108142,-1.097186,-1.104436,-1.107336,-1.11072,-1.108303,-1.106531,-1.111526,-1.131505,-1.118293,-1.11072,-1.109109,-1.117648,-1.107659,-1.109109,-1.115715,-1.110881,-1.124738,-1.11781,-1.115876,-1.12796,-1.114426,-1.128121,-1.120065,-1.120871,-1.131022,-1.132472,-1.121354,-1.121515,-1.124416,-1.112009,-1.1423,-1.123127,-1.142623,-1.136178,-1.132794,-1.146973,-1.149229,-1.15084,-1.153579,-1.147779,-1.164535,-1.161313,-1.156479,-1.160507,-1.168725,-1.157446,-1.163408,-1.173075,-1.163569,-1.175009,-1.184676,-1.162119,-1.18806,-1.190154,-1.167275,-1.188221,-1.172753,-1.187576,-1.192249,-1.199822,-1.195955,-1.187093,-1.183709,-1.190315,-1.197566,-1.184676,-1.190638,-1.188543,-1.201272,-1.198049,-1.200949,-1.191121,-1.196921,-1.186126,-1.193054,-1.203689,-1.175492,-1.184676,-1.179842,-1.165986,-1.16663,-1.172592,-1.155513,-1.167113,-1.167113,-1.144234,-1.151807,-1.146006,-1.129088,-1.155513,-1.126671,-1.148745,-1.141817,-1.12796,-1.116037,-1.118937,-1.122804,-1.103147,-1.121999,-1.087357,-1.095736,-1.077851,-1.088002,-1.07914,-1.062383,-1.053521,-1.071728,-1.042081,-1.052393,-1.072373,-1.018718,-1.066733,-1.047076,-1.062705,-1.047721,-1.050782,-1.048365,-1.041437,-1.062383,-1.050621,-1.07205,-1.056905,-1.054004,-1.092996,-1.065122,-1.062866,-1.073178,-1.083329,-1.077851,-1.089291,-1.067861,-1.065605,-1.091224,-1.080912,-1.091546,-1.090418,-1.094769,-1.088807,-1.078656,-1.051104,-1.084457,-1.075434,-1.09783,-1.074145,-1.079784,-1.096058,-1.079784,-1.093802,-1.087518,-1.11507,-1.069956,-1.097347,-1.093158,-1.073178,-1.113459,-1.0735,-1.085746,-1.114748,-1.085101,-1.103631,-1.102342,-1.102342,-1.087679,-1.091707,-1.110398,-1.073178,-1.11217,-1.106531,-1.085907,-1.099441,-1.093963,-1.109914,-1.116843,-1.070117,-1.108142,-1.097025,-1.106047,-1.101536,-1.109592,-1.100247,-1.117004,-1.095574,-1.103147,-1.099764,-1.11217,-1.095736,-1.104758,-1.09638,-1.107336,-1.125382,-1.0648,-1.098636,-1.099925,-1.086068,-1.089935,-1.08204,-1.068506,-1.090418,-1.076562,-1.070439,-1.075434,-1.05771,-1.037731,-1.052877,-1.039987,-1.024035,-1.035797,-1.030964,-1.006473,-1.031286,-1.008245,-1.01034,-1.020491,-0.978598,-1.009212,-0.985527,-0.995033,-0.968286,-0.980049,-0.97602,-0.974893,-0.953946,-0.985849,-0.980371,-0.936223,-0.966997,-0.968448,-0.970703,-0.982949,-0.981982,-0.971992,-0.969253,-0.968931,-0.964742,-0.964581,-0.983754,-0.970059,-1.006473,-0.976665,-0.970381,-0.974409,-0.970703,-0.968125,-1.024358,-0.963775,-0.974731,-0.987621,-0.951691,-0.992133,-0.953785,-0.958619,-0.954108,-0.941379,-0.952657,-0.936062,-0.955074,-0.926878,-0.942023,-0.879346,-0.895136,-0.916405,-0.860495,-0.886435,-0.879829,-0.837937,-0.834392,-0.853727,-0.829236,-0.828592,-0.824242,-0.822792,-0.846316,-0.79395,-0.814413,-0.802168,-0.788472,-0.741102,-0.770104,-0.74368,-0.74513,-0.769298,-0.741102,-0.775421,-0.735785,-0.728534,-0.734979,-0.731918,-0.714033,-0.745935,-0.692442,-0.682614,-0.72225,-0.676813,-0.682775,-0.695504,-0.678586,-0.69502,-0.68922,-0.676169,-0.663762,-0.668596,-0.65909,-0.672302,-0.675524,-0.640399,-0.6491,-0.654095,-0.630732,-0.639755,-0.660056,-0.612525,-0.655384,-0.605596,-0.599474,-0.625254,-0.603341,-0.638143,-0.617842,-0.622192,-0.585134,-0.623481,-0.637338,-0.60753,-0.602535,-0.617036,-0.64056,-0.606885,-0.589806,-0.624609,-0.596412,-0.625737,-0.612202,-0.576916,-0.594318,-0.59319,-0.598185,-0.625254,-0.586262,-0.565477,-0.573049,-0.559193,-0.587873,-0.561771,-0.566121,-0.549686,-0.581428,-0.569666,-0.536152,-0.566282,-0.540502,-0.54308,-0.537441,-0.530351,-0.54163,-0.531318,-0.542758,-0.557259,-0.538569,-0.542275,-0.542919,-0.510533,-0.518589,-0.535346,-0.526968,-0.518428,-0.528096,-0.542275,-0.478792,-0.546786,-0.538408,-0.507794,-0.550814,-0.543241,-0.544853,-0.537441,-0.516978,-0.526646,-0.541952,-0.536152,-0.559998,-0.535024,-0.540019,-0.546303,-0.536152,-0.559515,-0.500866,-0.540019,-0.52874,-0.545497,-0.5086,-0.523262,-0.534218,-0.530029,-0.555648,-0.54872,-0.491682,-0.558065,-0.544369,-0.549042,-0.555809,-0.511178,-0.534541,-0.529868,-0.545014,-0.536152,-0.528257,-0.530029,-0.538085,-0.541952,-0.516011,-0.514884,-0.553392,-0.516495,-0.538891,-0.515528,-0.517945,-0.552587,-0.537119,-0.509566,-0.535669,-0.508439,-0.521006,-0.500705,-0.540341,-0.518589,-0.509244,-0.493615,-0.505538,-0.526646,-0.487492,-0.511822,-0.48282,-0.494743,-0.529062,-0.496838,-0.468158,-0.511822,-0.505538,-0.508922,-0.533896,-0.479436,-0.486203,-0.47138,-0.488943,-0.499899,-0.476214,-0.506666,-0.473958,-0.501671,-0.49426,-0.475086,-0.49571,-0.459779,-0.502638,-0.470897,-0.48282,-0.52874,-0.475892,-0.470252,-0.485237,-0.472669,-0.516334,-0.496354,-0.482498,-0.480081,-0.514078,-0.506827,-0.50715,-0.490393,-0.467513,-0.497643,-0.519395,-0.462518,-0.479597,-0.484109,-0.476214,-0.505861,-0.464291,-0.493937,-0.482659,-0.483464,-0.474764,-0.469124,-0.500382,-0.449145,-0.511983,-0.439155,-0.468319,-0.472025,-0.436416,-0.463968,-0.4369,-0.432388,-0.420465,-0.426588,-0.435611,-0.434966,-0.413537,-0.428038,-0.430132,-0.410314,-0.387757,-0.419498,-0.373255,-0.410797,-0.421754,-0.364555,-0.400808,-0.390012,-0.37825,-0.410153,-0.397746,-0.401291,-0.391463,-0.39259,-0.38534,-0.401774,-0.397585,-0.392268,-0.410636,-0.388723,-0.401774,-0.388723,-0.407897,-0.428843,-0.417565,-0.401774,-0.419498,-0.403063,-0.423365,-0.454462,-0.391301,-0.434322,-0.441733,-0.411603,-0.443022,-0.440766,-0.45994,-0.448823,-0.433194,-0.431582,-0.432066,-0.431744,-0.423043,-0.446406,-0.40403,-0.41692,-0.41982,-0.436416,-0.375672,-0.407575,-0.385018,-0.427715,-0.414181,-0.397907,-0.401452,-0.401613,-0.35811,-0.390979,-0.382278,-0.3739,-0.412731,-0.383245,-0.370839,-0.390496,-0.390979,-0.394524,-0.395007,-0.389368,-0.373578,-0.383567,-0.42836,-0.397102,-0.437222,-0.422237,-0.387757,-0.449145,-0.414664,-0.424332,-0.439961,-0.414987,-0.46139,-0.465902,-0.419659,-0.457685,-0.454623,-0.44705,-0.471702,-0.476214,-0.463002,-0.474441,-0.451078,-0.491521,-0.47847,-0.471863,-0.479436,-0.465096,-0.458168,-0.449951,-0.497482,-0.455912,-0.480081,-0.455268,-0.470736,-0.455751,-0.458812,-0.46703,-0.467996,-0.471219,-0.466224,-0.492326,-0.483948,-0.474119,-0.486526,-0.47573,-0.500221,-0.49861,-0.52729,-0.479759,-0.540502,-0.497321,-0.535024,-0.549847,-0.529385,-0.582717,-0.536958,-0.578205,-0.545819,-0.552103,-0.564188,-0.590934,-0.566604,-0.54018,-0.593834,-0.575627,-0.585134,-0.556937,-0.573372,-0.582878,-0.581589,-0.565477,-0.588034,-0.53873,-0.571438,-0.576433,-0.547431,-0.558709,-0.549525,-0.546786,-0.565799,-0.541147,-0.5774,-0.519717,-0.532929,-0.541952,-0.528096,-0.590773,-0.550814,-0.554359,-0.534702,-0.558226,-0.552264,-0.565477,-0.524712,-0.574016,-0.530513,-0.525357,-0.559998,-0.557098,-0.585456,-0.555648,-0.574338,-0.554037,-0.563865,-0.578205,-0.57321,-0.579494,-0.558548,-0.59754,-0.586262,-0.567571,-0.605113,-0.582072,-0.571599,-0.596896,-0.587067,-0.572405,-0.582072,-0.598507,-0.575144,-0.587228,-0.576272,-0.584811,-0.575466,-0.616069,-0.548236,-0.603663,-0.592062,-0.592706,-0.590612,-0.555809,-0.635888,-0.576916,-0.595284,-0.575305,-0.571438,-0.57595,-0.574822,-0.595123,-0.567732,-0.597218,-0.566443,-0.581911,-0.589484,-0.563221,-0.579655,-0.596735,-0.54872,-0.598668,-0.613975,-0.57031,-0.596573,-0.563865,-0.585295,-0.599635,-0.573855,-0.596573,-0.593351,-0.589162,-0.572244,-0.587712,-0.598507,-0.586584,-0.563865,-0.578528,-0.586262,-0.571599,-0.568377,-0.55307,-0.513433,-0.533735,-0.544691,-0.500382,-0.491037,-0.491359,-0.445278,-0.454301,-0.433355,-0.408542,-0.417887,-0.387918,-0.410153,-0.396618,-0.345864,-0.350376,-0.309934,-0.301233,-0.248062,-0.254668,-0.192958,-0.186029,-0.156705,-0.13882,-0.09435,-0.073564,-0.011854,-0.012015,0.039384,0.071125,0.094649,0.167316,0.202119,0.250134,0.301694,0.354543,0.387574,0.423182,0.470714,0.492788,0.524046,0.55756,0.582213,0.615565,0.641023,0.677599,0.701767,0.735281,0.763962,0.791192,0.815361,0.840174,0.858059,0.873366,0.884322,0.894151,0.888834,0.884161,0.882389,0.861603,0.817133,0.814233,0.757839,0.686622,0.623461,0.613471,0.519213,0.469264,0.446545,0.337947,0.294444,0.239017,0.171022,0.103672,0.038417,-0.030705,-0.093705,-0.127702,-0.198114,-0.235655,-0.281415,-0.332974,-0.386951,-0.423204,-0.473475,-0.501833,-0.509405,-0.568538,-0.543725,-0.599796,-0.624931,-0.634115,-0.622192,-0.634276,-0.635888,-0.646844,-0.618003,-0.625576,-0.628959,-0.615103,-0.619292,-0.602213,-0.57031,-0.576111,-0.572083,-0.556776,-0.526162,-0.526001,-0.514722,-0.49426,-0.519234,-0.469608,-0.486526,-0.467513,-0.456396,-0.45849,-0.441733,-0.423043,-0.427393,-0.440605,-0.424654,-0.445922,-0.397907,-0.408381,-0.413053,-0.39823,-0.397424,-0.355532,-0.412086,-0.39114,-0.378734,-0.372772,-0.399358,-0.387434,-0.38824,-0.414987,-0.393557,-0.373417,-0.386629,-0.386307,-0.365844,-0.425943,-0.400647,-0.409186,-0.403063,-0.370839,-0.40403,-0.372128,-0.374867,-0.382762,-0.389207,-0.383245,-0.385823,-0.375995,-0.379056,-0.399035,-0.363427,-0.371805,-0.381312,-0.336358,-0.384373,-0.353759,-0.364233,-0.353437,-0.349087,-0.322824,-0.343609,-0.339742,-0.322179,-0.352309,-0.349087,-0.364555,-0.326046,-0.364716,-0.311545,-0.317345,-0.327013,-0.312834,-0.347959,-0.282059,-0.310095,-0.329269,-0.314123,-0.320568,-0.314767,-0.297366,-0.304939,-0.311867,-0.319118,-0.350537,-0.300105,-0.304133,-0.330074,-0.272553,-0.309611,-0.307356,-0.292693,-0.297849,-0.3051,-0.296883,-0.271425,-0.341192,-0.262563,-0.299138,-0.272392,-0.276903,-0.265141,-0.276903,-0.248707,-0.295433,-0.284154,-0.252896,-0.275937,-0.246129,-0.221154,-0.262885,-0.209714,-0.262241,-0.218093,-0.234044,-0.22196,-0.248868,-0.236622,-0.225505,-0.222121,-0.204075,-0.23485,-0.243389,-0.222927,-0.250801,-0.225344,-0.193119,-0.227438,-0.180068,-0.234205,-0.234044,-0.20472,-0.215354,-0.219704,-0.174106,-0.235494,-0.189896,-0.17894,-0.186996,-0.213904,-0.162183,-0.189091,-0.182001,-0.12303,-0.186513,-0.166211,-0.147359,-0.147682,-0.132053,-0.129958,-0.126897,-0.124158,-0.113523,-0.147359,-0.085165,-0.11449,-0.098378,-0.106756,-0.113846,-0.101278,-0.093383,-0.102567,-0.091288,-0.094833,-0.126091,-0.067603,-0.061802,-0.08581,-0.09435,-0.091933,-0.090483,-0.06438,-0.070181,-0.09016,-0.046818,-0.064703,-0.104178,-0.06293,-0.098539,-0.087582,-0.073403,-0.069214,-0.071953,-0.080976,-0.087905,-0.083232,-0.095961,-0.096122,-0.105628,-0.036506,-0.101922,-0.073403,-0.094672,-0.084199,-0.082749,-0.104339,-0.087099,-0.05713,-0.101278,-0.072759,-0.073403,-0.087421,-0.072759,-0.078076,-0.04279,-0.084521,-0.018943,-0.067764,-0.070181,-0.030705,-0.095639,-0.046979,-0.050201,-0.068731,-0.056646,-0.073887,-0.073403,-0.064864,-0.061319,-0.066797,-0.084521,-0.073242,-0.074692,-0.040051,-0.062447,-0.056646,-0.077915,-0.056485,-0.058902,-0.053102,-0.064703,-0.060836,-0.060675,-0.073726,-0.000575,-0.074853,-0.049074,-0.032156,-0.016043,-0.026677,-0.016204,-0.050685,-0.036667,0.003936,-0.023455,0.012637,-0.019749,-0.003798,0.011348,-0.00267,-0.00267,0.01731,0.00877,0.029716,0.027622,0.005386,0.024721,0.041478,0.043573,0.049535,0.019082,0.043412,0.065325,0.059363,0.062263,0.049212,0.054046,0.047279,0.063391,0.057268,0.045829,0.057107,0.051146,0.044379,0.081276,0.065808,0.022466,0.081115,-0.008309,0.05469,0.031005,0.024721,0.023271,-0.010082,0.001197,0.021177,0.018115,0.00442,0.001842,0.002647,0.002325,0.011509,0.010059,0.014732,-0.024905,0.011026,0.011509,0.01167,-0.000414,0.034389,-0.014593,-0.031994,0.025205,-0.035539,0.001842,0.003614,0.007642,-0.044723,-0.000736,-0.014432,-0.005248,0.024238,-0.047946,0.015054,-0.011854,-0.04134,0.002003,-0.026194,-0.006859,-0.010565,-0.020232,0.013443,0.00587,-0.006376,0.001358,-0.020071,-0.030222,-0.002509,-0.026677,-0.044562,-0.000736,0.013443,-0.038278,-0.037795,-0.045851,-0.070342,-0.026838,-0.071148,-0.082749,-0.063253,-0.102406,-0.112879,-0.068409,-0.157188,-0.127219,-0.163633,-0.170561,-0.143976,-0.210037,-0.196986,-0.176684,-0.219704,-0.203431,-0.243873,-0.262724,-0.235978,-0.244678,-0.277064,-0.292693,-0.261758,-0.281737,-0.27932,-0.301555,-0.328141,-0.322663,-0.343609,-0.334425,-0.349409,-0.336519,-0.396941,-0.3681,-0.400485,-0.395329,-0.378734,-0.421109,-0.434966,-0.395491,-0.467996,-0.435127,-0.433999,-0.473152,-0.458168,-0.474925,-0.482014,-0.492648,-0.508922,-0.527129,-0.540825,-0.5173,-0.557098,-0.530996,-0.575144,-0.597218,-0.568054,-0.595123,-0.604791,-0.64475,-0.637338,-0.652806,-0.655384,-0.675685,-0.680197,-0.688092,-0.718544,-0.72225,-0.724023,-0.760114,-0.752219,-0.777355,-0.793628,-0.797495,-0.807485,-0.839226,-0.837293,-0.86275,-0.889175,-0.88418,-0.917371,-0.917855,-0.933323,-0.952657,-0.971026,-0.992938,-0.999867,-1.006956,-1.010501,-1.025002,-1.030964,-1.057388,-1.064639,-1.067378,-1.069956,-1.089129,-1.080429,-1.111042,-1.09348,-1.107175,-1.123449,-1.105242,-1.119904,-1.138111,-1.130216,-1.134083,-1.134566,-1.126994,-1.132633,-1.144395,-1.128283,-1.147779,-1.148745,-1.137306,-1.149712,-1.149551,-1.146006,-1.141172,-1.157124,-1.16083,-1.147295,-1.155029,-1.138595,-1.149229,-1.125382,-1.140689,-1.145684,-1.137467,-1.1336,-1.137144,-1.142623,-1.138756,-1.141172,-1.138756,-1.147617,-1.144073,-1.140045,-1.163569,-1.142139,-1.163891,-1.154385,-1.146167,-1.157768,-1.160668,-1.151001,-1.166147,-1.172914,-1.17807,-1.180165,-1.188865,-1.184193,-1.171303,-1.184515,-1.180165,-1.194988,-1.181776,-1.181131,-1.202561,-1.191604,-1.196438,-1.192249,-1.194021,-1.204978,-1.199016,-1.191765,-1.2111,-1.213195,-1.217384,-1.225118,-1.201433,-1.213678,-1.20385,-1.205783,-1.237525,-1.227535,-1.228179,-1.21529,-1.223023,-1.209167,-1.225279,-1.249609,-1.230596,-1.250415,-1.226085,-1.233497,-1.232369,-1.239942,-1.250898,-1.247514,-1.221251,-1.240425,-1.225279,-1.23543,-1.262015,-1.251059,-1.25122,-1.243647,-1.242358,-1.242358,-1.235269,-1.253315,-1.256698,-1.278772,-1.247192,-1.26556,-1.25122,-1.228985,-1.259438,-1.242197,-1.245097,-1.261049,-1.271844,-1.27555,-1.275872,-1.257504,-1.27555,-1.2799,-1.265399,-1.264432,-1.257182,-1.267171,-1.249609,-1.271683,-1.261693,-1.264271,-1.256698,-1.255248,-1.276356,-1.27555,-1.263788,-1.284089,-1.270716,-1.267816,-1.290857,-1.276839,-1.288601,-1.292629,-1.257987,-1.2712,-1.266527,-1.254926,-1.246709,-1.244936,-1.249126,-1.258149,-1.267494,-1.278128,-1.269266,-1.276033,-1.277483,-1.284251,-1.287473,-1.286829,-1.275067,-1.270394,-1.260404,-1.272327,-1.26266,-1.275389,-1.289407,-1.276356,-1.280061,-1.260726,-1.270233,-1.26701,-1.288118,-1.289407,-1.28699,-1.273133,-1.261532,-1.278772,-1.2828,-1.280706,-1.283928,-1.272811,-1.274905,-1.28844,-1.296335,-1.269105,-1.277645,-1.28554,-1.283445,-1.281834,-1.266849,-1.29134,-1.294079,-1.262338,-1.261693,-1.26701,-1.273294,-1.271683,-1.275067,-1.2741,-1.27845,-1.240908,-1.285862,-1.264755,-1.264755,-1.260726,-1.273939,-1.262177,-1.280223,-1.267977,-1.266044,-1.274744,-1.258793,-1.255571,-1.267977,-1.257021,-1.268299,-1.25412,-1.258149,-1.263466,-1.258149,-1.25686,-1.261049,-1.263788,-1.261854,-1.270877,-1.26411,-1.264593,-1.270716,-1.250415,-1.249126,-1.269427,-1.248803,-1.239942,-1.269588,-1.239458,-1.253476,-1.257826,-1.229146,-1.244453,-1.244453,-1.21819,-1.233819,-1.240425,-1.211261,-1.237686,-1.214484,-1.201433,-1.231563,-1.220607,-1.24832,-1.218029,-1.194827,-1.194343,-1.198855,-1.192571,-1.18532,-1.201272,-1.174042,-1.183548,-1.16373,-1.148423,-1.174203,-1.154062,-1.135533,-1.150679,-1.131827,-1.129733,-1.141334,-1.105081,-1.079945,-1.132794,-1.079784,-1.073178,-1.078334,-1.056099,-1.075112,-1.085262,-1.052554,-1.029675,-1.046754,-1.023069,-0.990038,-1.000511,-1.001156,-0.982627,-1.013885,-0.989394,-0.984238,-0.984077,-0.984721,-1.003412,-0.94444,-0.962969,-0.956363,-0.963614,-0.975376,-0.931067,-0.936062,-0.951368,-0.897714,-0.921722,-0.91141,-0.894331,-0.904965,-0.879829,-0.883696,-0.868551,-0.905287,-0.886597,-0.878057,-0.863556,-0.84551,-0.831976,-0.86839,-0.821019,-0.852277,-0.812318,-0.831976,-0.820536,-0.812318,-0.818925,-0.807646,-0.789761,-0.781866,-0.837454,-0.760437,-0.779771,-0.795078,-0.773165,-0.809257,-0.751575,-0.75093,-0.758503,-0.741907,-0.725795,-0.7896,-0.714677,-0.739168,-0.750608,-0.734334,-0.734334,-0.727084,-0.717578,-0.728212,-0.707266,-0.705493,-0.684064,-0.717094,-0.707427,-0.681164,-0.685997,-0.673913,-0.699532,-0.671496,-0.65635,-0.659895,-0.646039,-0.667629,-0.665373,-0.652322,-0.649744,-0.639916,-0.637499,-0.660862,-0.6491,-0.629443,-0.623965,-0.63621,-0.622676,-0.61897,-0.629604,-0.563704,-0.608819,-0.571116,-0.601246,-0.586584,-0.580622,-0.576594,-0.562093,-0.5803,-0.536474,-0.587389,-0.561126,-0.550492,-0.528579,-0.559837,-0.548236,-0.539374,-0.529385,-0.510211,-0.519073,-0.503605,-0.550009,-0.512144,-0.497804,-0.514239,-0.484109,-0.503444,-0.500705,-0.487009,-0.497482,-0.49716,-0.461229,-0.486365,-0.497321,-0.456396,-0.50296,-0.451884,-0.466224,-0.482981,-0.464935,-0.424493,-0.461068,-0.441894,-0.410636,-0.455429,-0.409186,-0.421593,-0.437544,-0.433999,-0.433194,-0.447856,-0.406286,-0.414826,-0.416598,-0.418531,-0.451401,-0.380667,-0.401774,-0.384373,-0.402741,-0.408703,-0.406769,-0.414664,-0.409992,-0.377606,-0.41402,-0.397424,-0.396618,-0.368744,-0.385501,-0.390979,-0.368744,-0.371,-0.390335,-0.359077,-0.403869,-0.364716,-0.312673,-0.393557,-0.335714,-0.359882,-0.337325,-0.316701,-0.344575,-0.342481,-0.332813,-0.317184,-0.288988,-0.308,-0.318473,-0.324113,-0.304294,-0.280448,-0.274809,-0.308,-0.278031,-0.268847,-0.245323,-0.292693,-0.243067,-0.246451,-0.273681,-0.227438,-0.25354,-0.244195,-0.209553,-0.237428,-0.229372,-0.204397,-0.217932,-0.189574,-0.220993,-0.233722,-0.204558,-0.182807,-0.217126,-0.181034,-0.187318,-0.189896,-0.169595,-0.136403,-0.190057,-0.184257,-0.178295,-0.176523,-0.160088,-0.167822,-0.135275,-0.147037,-0.152838,-0.162183,-0.133342,-0.155738,-0.158155,-0.096444,-0.167339,-0.134792,-0.164116,-0.170722,-0.110784,-0.148165,-0.154932,-0.155093,-0.133664,-0.108206,-0.113362,-0.152032,-0.126574,-0.131891,-0.105467,-0.130925,-0.115296,-0.12593,-0.116262,-0.073564,-0.105628,-0.109656,-0.075659,-0.109012,-0.079204,-0.111106,-0.096122,-0.078398,-0.111912,-0.066153,-0.074209,-0.099667,-0.058419,-0.075176,-0.076948,-0.058902,-0.067603,-0.073081,-0.040534,-0.049557,-0.044079,-0.031028,-0.044884,-0.022971,0.006998,-0.036828,0.003131,-0.011693,-0.03135,0.00877,-0.012659,-0.003959,-0.01411,0.030844,0.000069,0.002325,0.017954,0.014409,0.013443,0.019243,0.01876,0.036322,0.05324,0.019243,0.04454,0.034067,0.037289,0.057591,0.003775,0.026333,0.041962,0.049051,0.035356,0.065647,0.015054,0.058557,0.056302,0.036483,0.087076,0.041317,0.046312,0.082082,0.061458,0.075798,0.084337,0.08047,0.075153,0.080793,0.080954,0.072736,0.109956,0.083854,0.113501,0.071931,0.108184,0.135897,0.111406,0.099322,0.118979,0.091427,0.119624,0.137347,0.099966,0.099161,0.121718,0.132352,0.118174,0.111084,0.121718,0.135414,0.149432,0.131386,0.162483,0.154749,0.125102,0.188585,0.134769,0.139442,0.168605,0.146693,0.148465,0.182301,0.184879,0.206631,0.176662,0.177467,0.191485,0.180206,0.209209,0.217426,0.200991,0.236922,0.200669,0.220649,0.222743,0.223549,0.22516,0.237245,0.238211,0.203569,0.226288,0.2308,0.241111,0.25239,0.254001,0.222099,0.221938,0.249973,0.20937,0.247395,0.211787,0.219682,0.235633,0.240145,0.235633,0.2337,0.245623,0.234505,0.209692,0.181012,0.204858,0.237567,0.191969,0.194547,0.215815,0.194869,0.194385,0.206147,0.191969,0.225966,0.190357,0.179079,0.194708,0.191485,0.176984,0.183751,0.17505,0.179723,0.160549,0.182301,0.176501,0.181012,0.18504,0.200186,0.17215,0.191646,0.220488,0.17924,0.171506,0.179723,0.190357,0.165061,0.225966,0.181979,0.165222,0.207759,0.159421,0.16635,0.173439,0.164738,0.159905,0.169894,0.13348,0.138797,0.15636,0.094488,0.152332,0.08466,0.131386,0.121557,0.08611,0.086432,0.108345,0.065808,0.076281,0.098194,0.040189,0.062908,0.042767,0.025205,0.036645,0.016665,0.0302,0.027622,0.018599,-0.000575,0.006031,0.006353,-0.031511,-0.017332,-0.014754,-0.020555,-0.056969,-0.036828,-0.065186,-0.058741,-0.103372,-0.057613,-0.103372,-0.119646,-0.080976,-0.107884,-0.13318,-0.128024,-0.152676,-0.171206,-0.148326,-0.202303,-0.192958,-0.210359,-0.210842,-0.183451,-0.222282,-0.245162,-0.182968,-0.238878,-0.238072,-0.219704,-0.255796,-0.256279,-0.250318,-0.273842,-0.239684,-0.27642,-0.303972,-0.247418,-0.296722,-0.27932,-0.304778,-0.311223,-0.303972,-0.319118,-0.30945,-0.355048,-0.327013,-0.335552,-0.357949,-0.357304,-0.373739,-0.371805,-0.356499,-0.381634,-0.387918,-0.391785,-0.404514,-0.394524,-0.420787,-0.418209,-0.412731,-0.437544,-0.410797,-0.412086,-0.426588,-0.452529,-0.449467,-0.424815,-0.487009,-0.454623,-0.477825,-0.488781,-0.449628,-0.483625,-0.475892,-0.483464,-0.477825,-0.513917,-0.485559,-0.523101,-0.483948,-0.519556,-0.529385,-0.55307,-0.53728,-0.546142,-0.534218,-0.542114,-0.559837,-0.55017,-0.582072,-0.554037,-0.556776,-0.575788,-0.564026,-0.562093,-0.591417,-0.573049,-0.573533,-0.598346,-0.579655,-0.581911,-0.592868,-0.564349,-0.598668,-0.558226,-0.612847,-0.600924,-0.587873,-0.603663,-0.577722,-0.606563,-0.606724,-0.654578,-0.586423,-0.599474,-0.635888,-0.648455,-0.648133,-0.643622,-0.656673,-0.648616,-0.696954,-0.701465,-0.729823,-0.674719,-0.70646,-0.704688,-0.733368,-0.727567,-0.726923,-0.736751,-0.711455,-0.767687,-0.720639,-0.766559,-0.746419,-0.733529,-0.776227,-0.729662,-0.74513,-0.764626,-0.718222,-0.727728,-0.707427,-0.661023,-0.700015,-0.705332,-0.655061,-0.669079,-0.647005,-0.645716,-0.640077,-0.645877,-0.592223,-0.62477,-0.601891,-0.546947,-0.616714,-0.524229,-0.503121,-0.506183,-0.454462,-0.460424,-0.419176,-0.384051,-0.39114,-0.379862,-0.304133,-0.307839,-0.256763,-0.244034,-0.218254,-0.143009,-0.146232,-0.074209,-0.070503,0.010059,0.02021,0.076442,0.097227,0.123974,0.197447,0.212592,0.242884,0.30685,0.330213,0.375489,0.389185,0.42141,0.429788,0.445095,0.466364,0.462013,0.472487,0.469425,0.466364,0.460724,0.4401,0.411259,0.400625,0.339236,0.325702,0.295088,0.197286,0.195997,0.098355,0.081115,-0.01556,-0.120613,-0.162988,-0.218093,-0.344737,-0.391624,-0.473958,-0.566121,-0.608819,-0.639755,-0.743841,-0.791533,-0.868712,-0.924622,-0.972153,-1.025808,-1.068506,-1.089452,-1.112492,-1.129249,-1.135372,-1.131344,-1.125221,-1.141172,-1.15084,-1.165019,-1.167758,-1.169047,-1.167758,-1.163569,-1.182098,-1.16953,-1.180003,-1.186126,-1.180809,-1.201594,-1.205139,-1.179037,-1.189832,-1.198049,-1.193538,-1.199983,-1.194827,-1.197244,-1.206589,-1.199016,-1.200627,-1.197083,-1.197727,-1.197244,-1.197405,-1.187254,-1.191765,-1.196116,-1.186287,-1.192732,-1.190799,-1.198049,-1.181292,-1.199177,-1.191927,-1.207556,-1.20965,-1.217545,-1.214967,-1.201916,-1.217223,-1.204333,-1.200466,-1.208039,-1.217223,-1.218512,-1.209006,-1.232691,-1.204816,-1.198694,-1.221734,-1.215128,-1.219318,-1.228663,-1.215934,-1.231724,-1.238653,-1.235108,-1.230757,-1.230596,-1.231402,-1.240586,-1.23253,-1.233658,-1.229146,-1.224957,-1.240425,-1.22689,-1.236558,-1.233819,-1.230274,-1.234786,-1.240264,-1.238653,-1.243647,-1.246548,-1.232208,-1.224312,-1.245097,-1.238491,-1.23833,-1.261049,-1.230435,-1.23398,-1.248964,-1.213678,-1.253637,-1.254926,-1.242036,-1.239942,-1.229468,-1.244936,-1.245903,-1.24687,-1.237847,-1.242358,-1.236558,-1.23978,-1.217223,-1.223185,-1.229791,-1.243808,-1.212067,-1.223023,-1.230596,-1.213517,-1.233174,-1.218834,-1.201594,-1.241714,-1.168564,-1.19241,-1.184193,-1.186932,-1.180165,-1.167597,-1.144395,-1.156802,-1.129088,-1.132311,-1.157446,-1.125221,-1.127155,-1.092513,-1.103631,-1.113943,-1.070439,-1.095252,-1.065928,-1.084457,-1.02323,-1.03048,-1.047076,-1.02033,-1.040148,-1.013079,-0.991811,-1.033703,-0.975698,-0.985366,-1.004862,-1.002606,-0.964581,-0.979887,-0.964581,-0.972798,-0.971992,-0.954108,-0.94444,-0.962969,-0.952174,-0.952819,-0.966192,-0.927361,-0.951207,-0.956524,-0.929939,-0.945407,-0.923333,-0.931228,-0.922044,-0.918821,-0.903354,-0.90287,-0.905287,-0.925105,-0.926072,-0.902065,-0.90722,-0.880635,-0.870806,-0.87419,-0.920755,-0.862589,-0.902709,-0.862267,-0.854533,-0.877251,-0.843254,-0.823114,-0.845832,-0.810707,-0.821986,-0.832942,-0.80104,-0.809096,-0.808613,-0.786861,-0.803134,-0.801845,-0.798462,-0.747063,-0.768493,-0.760759,-0.768171,-0.746419,-0.741424,-0.786539,-0.722411,-0.734818,-0.73949,-0.71226,-0.722411,-0.721283,-0.699532,-0.705654,-0.7179,-0.711616,-0.70791,-0.724667,-0.668918,-0.700337,-0.700176,-0.696954,-0.67343,-0.691475,-0.685192,-0.672463,-0.68213,-0.629604,-0.679391,-0.630893,-0.65345,-0.63766,-0.644911,-0.613491,-0.641527,-0.624448,-0.636049,-0.619614,-0.611397,-0.614136,-0.600602,-0.611397,-0.589645,-0.551942,-0.603502,-0.571438,-0.5832,-0.570632,-0.578044,-0.554842,-0.530029,-0.583039,-0.529707,-0.537119,-0.528579,-0.536958,-0.54163,-0.524551,-0.50296,-0.545336,-0.51585,-0.465257,-0.521329,-0.472991,-0.485398,-0.484592,-0.486203,-0.489587,-0.456879,-0.467352,-0.46703,-0.466869,-0.451884,-0.47283,-0.454301,-0.409025,-0.498288,-0.418531,-0.469608,-0.461713,-0.433033,-0.465257,-0.41547,-0.43416,-0.46139,-0.45704,-0.432549,-0.448017,-0.448017,-0.47138,-0.458974,-0.449145,-0.434322,-0.458007,-0.431582,-0.429004,-0.44415,-0.396941,-0.434966,-0.414342,-0.39968,-0.379378,-0.406286,-0.384373,-0.363266,-0.372289,-0.336197,-0.384373,-0.372128,-0.33523,-0.36246,-0.342803,-0.340225,-0.334586,-0.315412,-0.319279,-0.343931,-0.316701,-0.303489,-0.317507,-0.293821,-0.31509,-0.282704,-0.303005,-0.307033,-0.280931,-0.281737,-0.297849,-0.285121,-0.302844,-0.26933,-0.260307,-0.284154,-0.267397,-0.270458,-0.233239,-0.270297,-0.252412,-0.282381,-0.276259,-0.214226,-0.274809,-0.252574,-0.236944,-0.263369,-0.230499,-0.252896,-0.27497,-0.259341,-0.251929,-0.24774,-0.240489,-0.234205,-0.238717,-0.214709,-0.242584,-0.233239,-0.255151,-0.230661,-0.222604,-0.236461,-0.21906,-0.24065,-0.22196,-0.245484,-0.238878,-0.231627,-0.231144,-0.215998,-0.258213,-0.226149,-0.212776,-0.246934,-0.2421,-0.221315,-0.225021,-0.237106,-0.221638,-0.242906,-0.245645,-0.221154,-0.241939,-0.235011,-0.234689,-0.228083,-0.252412,-0.231305,-0.252574,-0.195213,-0.236944,-0.259018,-0.216482,-0.24065,-0.231144,-0.211165,-0.243873,-0.232111,-0.224055,-0.226149,-0.218899,-0.222443,-0.2334,-0.194247,-0.252896,-0.209231,-0.22631,-0.184096,-0.199403,-0.206331,-0.211165,-0.222443,-0.19473,-0.203108,-0.247095,-0.242423,-0.25064,-0.221799,-0.203108,-0.237106,-0.23775,-0.249834,-0.257891,-0.227922,-0.237428,-0.257568,-0.269008,-0.263691,-0.249029,-0.264497,-0.270619,-0.293982,-0.271586,-0.285282,-0.323307,-0.274325,-0.318151,-0.284798,-0.304939,-0.338936,-0.308322,-0.303489,-0.350376,-0.303811,-0.316701,-0.358593,-0.337486,-0.36391,-0.366649,-0.361171,-0.368744,-0.392913,-0.371966,-0.396941,-0.41837,-0.410959,-0.436738,-0.43835,-0.406286,-0.431421,-0.439155,-0.43271,-0.454462,-0.460424,-0.456396,-0.476375,-0.469124,-0.478631,-0.505861,-0.458168,-0.495388,-0.506827,-0.51005,-0.527612,-0.512628,-0.491198,-0.547753,-0.564993,-0.552425,-0.575627,-0.538085,-0.545819,-0.569021,-0.572244,-0.602213,-0.570955,-0.596896,-0.585778,-0.624126,-0.596412,-0.605435,-0.617358,-0.597862,-0.643622,-0.635565,-0.628315,-0.644911,-0.679875,-0.669724,-0.66199,-0.656512,-0.646522,-0.695342,-0.646683,-0.666985,-0.658767,-0.648616,-0.679391,-0.714033,-0.66199,-0.699048,-0.682936,-0.699209,-0.733207,-0.702271,-0.687609,-0.704527,-0.69502,-0.747386,-0.702915,-0.731112,-0.716611,-0.742068,-0.744969,-0.703882,-0.741424,-0.714677,-0.738846,-0.738685,-0.715805,-0.721122,-0.743196,-0.731434,-0.72789,-0.71935,-0.744808,-0.760114,-0.719994,-0.697759,-0.721606,-0.698887,-0.722089,-0.715966,-0.722572,-0.721122,-0.740779,-0.709682,-0.726762,-0.74803,-0.7179,-0.7867,-0.716772,-0.738363,-0.739168,-0.706138,-0.728695,-0.777355,-0.708555,-0.717578,-0.753669,-0.721122,-0.768332,-0.725634,-0.750608,-0.729501,-0.737879,-0.762048,-0.739007,-0.737879,-0.769621,-0.744002,-0.759309,-0.716933,-0.731273,-0.720961,-0.743519,-0.733368,-0.73514,-0.743035,-0.741424,-0.724345,-0.734818,-0.733851,-0.685192,-0.734979,-0.724506,-0.7179,-0.687286,-0.713872,-0.697759,-0.734657,-0.694376,-0.684386,-0.733207,-0.67923,-0.730467,-0.701143,-0.676491,-0.720317,-0.694537,-0.695504,-0.724989,-0.678586,-0.710971,-0.71645,-0.674396,-0.707266,-0.700015,-0.672302,-0.722089,-0.686158,-0.683419,-0.701626,-0.685514,-0.706138,-0.67778,-0.694859,-0.670368,-0.704204,-0.688575,-0.671013,-0.693731,-0.676169,-0.67069,-0.707266,-0.686803,-0.680841,-0.718383,-0.68213,-0.715,-0.671496,-0.698565,-0.705493,-0.70211,-0.709199,-0.687931,-0.701465,-0.703721,-0.690831,-0.700982,-0.688414,-0.722411,-0.708232,-0.69792,-0.692764,-0.688575,-0.680841,-0.70501,-0.67923,-0.680358,-0.707427,-0.652,-0.710971,-0.692442,-0.657156,-0.686481,-0.668274,-0.666824,-0.677458,-0.65055,-0.647005,-0.673591,-0.663118,-0.639271,-0.622676,-0.631376,-0.629926,-0.642333,-0.649422,-0.631054,-0.636854,-0.594318,-0.660379,-0.635404,-0.620903,-0.607369,-0.571438,-0.634115,-0.602535,-0.622837,-0.606241,-0.605758,-0.623159,-0.580783,-0.601407,-0.557743,-0.609463,-0.622998,-0.584167,-0.592868,-0.605274,-0.588839,-0.624126,-0.597862,-0.569343,-0.601085,-0.554198,-0.5832,-0.572244,-0.549364,-0.554681,-0.55887,-0.555165,-0.576916,-0.557581,-0.549686,-0.549203,-0.587712,-0.535024,-0.577077,-0.557581,-0.547914,-0.543241,-0.564349,-0.530835,-0.560965,-0.523262,-0.538247,-0.547592,-0.526646,-0.539213,-0.537763,-0.528579,-0.526484,-0.514561,-0.544208,-0.543725,-0.527451,-0.534218,-0.540502,-0.540663,-0.515528,-0.545819,-0.5115,-0.509566,-0.524873,-0.515206,-0.489104,-0.504249,-0.485881,-0.482336,-0.519717,-0.470736,-0.490554,-0.48572,-0.476375,-0.501027,-0.474441,-0.485076,-0.488943,-0.49426,-0.469447,-0.493454,-0.456557,-0.476053,-0.518751,-0.471058,-0.454462,-0.478953,-0.470252,-0.485398,-0.462518,-0.46703,-0.479275,-0.481047,-0.457201,-0.48717,-0.446889,-0.454462,-0.487654,-0.453656,-0.414503,-0.479597,-0.44125,-0.447534,-0.481692,-0.438672,-0.46139,-0.449628,-0.456396,-0.459779,-0.4485,-0.439316,-0.464291,-0.435611,-0.464291,-0.446084,-0.468158,-0.454784,-0.477503,-0.435611,-0.43271,-0.425299,-0.47992,-0.455268,-0.464774,-0.432549,-0.445922,-0.474764,-0.422721,-0.441089,-0.442055,-0.418209,-0.438027,-0.4427,-0.428038,-0.441089,-0.45414,-0.420626,-0.430777,-0.456396,-0.433033,-0.456557,-0.423526,-0.442217,-0.426749,-0.424171,-0.425137,-0.459457,-0.400969,-0.42127,-0.450917,-0.417726,-0.45994,-0.392913,-0.424815,-0.430777,-0.38244,-0.39968,-0.41112,-0.353921,-0.409831,-0.418048,-0.355371,-0.38679,-0.358754,-0.371161,-0.364394,-0.356982,-0.348926,-0.320246,-0.383567,-0.346187,-0.297527,-0.364394,-0.300589,-0.360204,-0.324435,-0.32089,-0.340064,-0.340547,-0.303489,-0.357465,-0.281898,-0.314445,-0.332974,-0.302522,-0.319279,-0.304778,-0.319118,-0.294144,-0.306228,-0.313962,-0.32379,-0.309934,-0.282704,-0.321212,-0.303166,-0.26933,-0.329913,-0.288665,-0.308322,-0.302683,-0.296722,-0.293821,-0.294949,-0.288182,-0.287054,-0.312189,-0.29511,-0.296883,-0.330396,-0.297044,-0.294144,-0.308322,-0.264174,-0.318473,-0.293821,-0.241456,-0.316701,-0.292049,-0.281092,-0.305906,-0.285282,-0.274809,-0.260146,-0.286571,-0.265141,-0.275614,-0.275292,-0.224699,-0.279481,-0.245162,-0.261919,-0.265786,-0.251768,-0.261274,-0.270781,-0.242745,-0.281092,-0.279481,-0.262402,-0.268847,-0.241778,-0.278353,-0.271908,-0.260791,-0.270458,-0.265786,-0.264013,-0.263208,-0.26208,-0.257407,-0.231627,-0.287376,-0.257407,-0.270297,-0.265141,-0.265625,-0.26353,-0.28077,-0.270619,-0.280931,-0.244517,-0.259985,-0.271103,-0.233239,-0.277064,-0.300266,-0.278514,-0.264819,-0.241939,-0.224216,-0.259663,-0.27207,-0.237428,-0.261435,-0.253218,-0.256924,-0.294144,-0.254507,-0.262563,-0.266752,-0.277548,-0.258374,-0.293338,-0.243873,-0.258213,-0.272875,-0.240489,-0.29221,-0.272714,-0.285282,-0.274325,-0.274648,-0.275937,-0.29656,-0.286571,-0.27642,-0.294305,-0.282381,-0.297527,-0.289954,-0.286893,-0.307356,-0.289632,-0.292855,-0.277226,-0.292532,-0.293821,-0.288182,-0.329591,-0.270136,-0.305422,-0.269975,-0.304939,-0.305583,-0.269008,-0.283187,-0.304455,-0.264658,-0.285282,-0.310095,-0.271264,-0.290115,-0.291727,-0.314445,-0.260469,-0.281576,-0.255313,-0.281576,-0.289149,-0.26498,-0.263047,-0.251929,-0.294466,-0.271264,-0.287537,-0.262241,-0.255635,-0.290438,-0.265463,-0.26498,-0.254346,-0.253379,-0.275292,-0.212292,-0.291888,-0.230499,-0.260791,-0.248707,-0.260146,-0.25918,-0.226794,-0.218576,-0.198919,-0.251285,-0.211326,-0.200047,-0.221315,-0.208748,-0.22341,-0.179906,-0.18329,-0.187157,-0.202142,-0.208264,-0.217448,-0.186996,-0.205847,-0.195536,-0.21906,-0.238717,-0.198114,-0.235011,-0.213259,-0.248707,-0.264013,-0.271908,-0.283348,-0.238556,-0.31364,-0.290277,-0.314123,-0.336519,-0.346831,-0.316862,-0.363427,-0.380989,-0.373739,-0.421754,-0.40967,-0.454945,-0.431099,-0.479759,-0.469285,-0.483142,-0.486042,-0.542114,-0.525195,-0.53164,-0.551781,-0.545819,-0.562254,-0.603341,-0.566121,-0.609463,-0.631698,-0.624609,-0.642977,-0.666985,-0.646039,-0.672785,-0.682453,-0.682614,-0.708071,-0.687447,-0.724506,-0.728856,-0.77236,-0.721122,-0.755603,-0.741102,-0.724184,-0.758342,-0.755281,-0.788633,-0.772037,-0.792178,-0.769298,-0.80974,-0.805712,-0.817474,-0.850183,-0.821019,-0.865489,-0.853727,-0.879507,-0.89997,-0.882891,-0.918983,-0.919949,-0.925911,-0.939606,-0.951852,-0.956686,-0.964097,-0.985366,-0.972637,-0.993744,-0.993422,-1.000672,-1.009212,-1.013723,-1.009695,-1.026452,-1.03193,-1.035153,-1.048848,-1.042887,-1.048526,-1.046754,-1.042081,-1.056421,-1.05481,-1.052232,-1.059966,-1.055938,-1.067378,-1.075112,-1.060449,-1.069795,-1.077045,-1.055777,-1.073339,-1.079945,-1.063027,-1.085585,-1.081718,-1.079462,-1.100569,-1.097347,-1.101053,-1.118454,-1.122804,-1.116037,-1.115715,-1.12361,-1.128444,-1.143912,-1.145684,-1.139722,-1.155513,-1.140367,-1.156802,-1.160668,-1.170658,-1.179198,-1.16953,-1.164535,-1.169369,-1.17662,-1.171625,-1.182742,-1.177103,-1.176942,-1.198372,-1.182742,-1.199499,-1.183548,-1.195471,-1.187898,-1.193216,-1.194021,-1.18097,-1.2082,-1.196438,-1.207394,-1.217223,-1.207233,-1.204011,-1.204333,-1.205622,-1.2111,-1.202561,-1.202077,-1.212389,-1.195149,-1.207878,-1.185643,-1.193699,-1.195149,-1.190315,-1.199338,-1.183548,-1.204011,-1.186126,-1.178714,-1.18951,-1.171303,-1.194666,-1.176781,-1.183387,-1.193054,-1.17662,-1.193054,-1.201594,-1.180165,-1.200627,-1.192571,-1.191765,-1.218512,-1.194827,-1.210617,-1.214484,-1.216417,-1.217706,-1.21964,-1.214806,-1.210939,-1.219962,-1.219157,-1.228018,-1.224312,-1.231402,-1.231563,-1.23978,-1.227213,-1.238491,-1.246709,-1.242358,-1.244292,-1.230113,-1.226085,-1.243808,-1.23108,-1.239136,-1.236236,-1.236075,-1.227052,-1.239942,-1.223185,-1.245581,-1.230919,-1.223829,-1.233335,-1.243164,-1.217223,-1.23978,-1.243003,-1.242519,-1.242842,-1.227213,-1.246064,-1.247514,-1.233819,-1.25122,-1.24397,-1.242358,-1.247514,-1.254282,-1.238975,-1.256698,-1.235269,-1.227857,-1.24832,-1.22544,-1.230274,-1.240586,-1.22109,-1.23253,-1.215612,-1.213839,-1.225601,-1.215773,-1.191443,-1.194988,-1.160346,-1.141011,-1.184515,-1.117165,-1.135855,-1.100892,-1.080429,-1.0677,-1.051749,-1.045787,-1.032414,-0.996805,-0.956202,-0.982143,-0.910765,-0.900131,-0.883374,-0.837132,-0.79814,-0.800395,-0.761242,-0.710488,-0.684064,-0.628637,-0.580622,-0.57031,-0.515367,-0.49281,-0.440122,-0.376156,-0.381151,-0.296077,-0.277387,-0.208587,-0.167017,-0.101439,-0.100794,-0.020555,0.019243,0.07177,0.080148,0.154265,0.18214,0.247073,0.273336,0.271403,0.326508,0.342298,0.347937,0.371139,0.36405,0.357766,0.364533,0.35551,0.31829,0.296538,0.264797,0.258835,0.173923,0.171989,0.108989,0.032616,-0.00557,-0.105789,-0.157027,-0.223249,-0.303328,-0.366005,-0.454462,-0.504088,-0.584489,-0.659251,-0.74368,-0.7838,-0.872095,-0.909315,-0.992777,-1.022263,-1.041115,-1.148584,-1.14794,-1.194182,-1.221734,-1.221573,-1.232046,-1.233013,-1.227374,-1.22963,-1.228663,-1.222862,-1.227857,-1.220607,-1.227052,-1.224796,-1.21255,-1.218512,-1.201755,-1.22689,-1.19821,-1.206589,-1.200949,-1.178553,-1.184676,-1.171947,-1.174364,-1.165502,-1.154224,-1.120226,-1.12216,-1.099603,-1.129088,-1.073823,-1.058194,-1.088968,-1.035314,-1.058355,-1.072534,-1.026452,-1.017752,-1.042726,-1.019041,-1.005345,-0.97312,-0.980693,-0.974893,-0.949113,-0.961358,-0.950402,-0.936867,-0.930583,-0.917694,-0.94589,-0.91286,-0.90722,-0.899487,-0.916727,-0.909154,-0.876768,-0.899164,-0.884341,-0.90577,-0.888369,-0.865651,-0.864362,-0.847121,-0.854372,-0.850505,-0.863395,-0.808774,-0.838743,-0.847766,-0.826014,-0.819569,-0.844221,-0.823436,-0.82972,-0.824081,-0.828914,-0.824081,-0.815058,-0.847121,-0.796689,-0.807163,-0.806196,-0.814413,-0.815058,-0.771232,-0.793467,-0.774293,-0.777999,-0.772199,-0.753508,-0.771715,-0.757536,-0.755119,-0.771232,-0.728695,-0.725473,-0.739007,-0.71081,-0.739813,-0.735623,-0.693248,-0.70501,-0.679069,-0.664729,-0.657478,-0.672463,-0.650711,-0.636854,-0.634921,-0.635565,-0.638143,-0.622676,-0.605919,-0.621387,-0.599313,-0.581267,-0.570632,-0.586584,-0.576594,-0.58175,-0.574338,-0.547753,-0.592545,-0.531802,-0.54018,-0.554842,-0.543241,-0.547108,-0.534541,-0.499577,-0.537119,-0.524068,-0.50151,-0.52439,-0.522779,-0.467352,-0.515045,-0.476858,-0.474925,-0.473314,-0.481853,-0.464452,-0.481531,-0.438672,-0.465418,-0.467835,-0.433033,-0.41982,-0.415309,-0.431744,-0.418048,-0.431582,-0.412731,-0.407253,-0.431582,-0.404997,-0.42981,-0.414987,-0.402741,-0.402741,-0.399196,-0.395974,-0.403063,-0.357626,-0.395652,-0.405641,-0.349087,-0.401452,-0.384534,-0.366811,-0.409992,-0.376317,-0.383084,-0.359399,-0.363427,-0.356015,-0.365522,-0.347315,-0.38534,-0.363266,-0.359238,-0.378089,-0.350698,-0.357949,-0.36101,-0.368905,-0.342159,-0.328141,-0.360527,-0.346992,-0.351343,-0.348442,-0.348765,-0.361493,-0.341353,-0.327013,-0.347476,-0.322663,-0.3051,-0.362782,-0.280448,-0.31799,-0.328785,-0.295916,-0.322179,-0.308806,-0.28222,-0.299461,-0.307356,-0.288504,-0.291404,-0.283348,-0.294305,-0.314929,-0.246773,-0.304617,-0.27497,-0.30365,-0.280609,-0.278676,-0.268686,-0.277226,-0.277387,-0.293821,-0.275937,-0.252574,-0.265625,-0.264497,-0.267558,-0.267719,-0.271586,-0.247095,-0.231305,-0.275292,-0.222766,-0.233722,-0.261919,-0.198758,-0.242745,-0.229694,-0.21761,-0.2363,-0.244517,-0.238717,-0.215676,-0.21487,-0.226794,-0.230661,-0.238395,-0.167661,-0.184257,-0.208909,-0.195213,-0.186513,-0.159121,-0.18619,-0.175717,-0.159605,-0.161538,-0.161861,-0.126574,-0.143331,-0.141076,-0.13737,-0.121096,-0.1045,-0.139948,-0.114329,-0.086938,-0.076948,-0.104984,-0.072437,-0.094188,-0.063414,-0.058741,-0.092738,-0.098217,-0.057774,-0.046496,-0.088227,-0.065347,-0.040051,-0.051813,-0.037473,-0.037312,-0.045368,-0.03135,-0.032961,-0.041017,-0.005731,-0.047785,-0.020071,0.015698,-0.022971,0.018921,-0.008309,-0.002831,0.016504,0.012154,0.010865,0.027783,0.048246,0.045345,0.046473,0.007642,0.059846,0.036161,0.056624,0.085626,0.054046,0.049857,0.061297,0.089493,0.055818,0.087882,0.065325,0.072414,0.105928,0.082082,0.089977,0.071286,0.086593,0.125746,0.073864,0.115596,0.122524,0.123813,0.126552,0.142503,0.13058,0.135575,0.129291,0.141053,0.136542,0.168605,0.109956,0.171345,0.158616,0.138475,0.182462,0.185846,0.133319,0.169572,0.181818,0.191324,0.163288,0.204536,0.204536,0.166189,0.224999,0.187779,0.210498,0.183429,0.20083,0.191163,0.202603,0.223388,0.224999,0.20228,0.206792,0.268342,0.184557,0.247073,0.231927,0.243045,0.205986,0.245945,0.270275,0.237245,0.22661,0.239661,0.258513,0.203892,0.239661,0.255452,0.251585,0.234667,0.264475,0.260124,0.254485,0.253518,0.227899,0.252551,0.260446,0.234505,0.253035,0.229511,0.268664,0.245784,0.25094,0.238695,0.27527,0.245462,0.257063,0.250134,0.253518,0.242239,0.289449,0.27092,0.283971,0.264636,0.305078,0.28526,0.27672,0.287676,0.316357,0.307656,0.252712,0.320063,0.27817,0.294444,0.324091,0.312812,0.292027,0.316357,0.308139,0.3083,0.33118,0.302017,0.320224,0.287515,0.280426,0.331664,0.278976,0.293155,0.293316,0.280909,0.298955,0.29251,0.251746,0.281232,0.27817,0.285904,0.274303,0.262702,0.26673,0.26528,0.263991,0.25529,0.248845,0.226288,0.239178,0.24095,0.190357,0.212431,0.234022,0.201475,0.190035,0.171667,0.157649,0.172795,0.15781,0.12623,0.140086,0.112373,0.104961,0.095294,0.115434,0.055657,0.059524,0.062586,0.052112,0.06323,0.005386,0.028911,-0.00122,0.004097,0.044862,0.000392,-0.010726,0.032778,-0.006215,-0.004603,0.013926,-0.017654,-0.025227,-0.003475,-0.051007,-0.030222,-0.034734,-0.043595,-0.058097,-0.067764,-0.03989,-0.063575,-0.044884,-0.105628,-0.067764,-0.102728,-0.116424,-0.138981,-0.087099,-0.136081,-0.141881,-0.145426,-0.133664,-0.132214,-0.179101,-0.145265,-0.18619,-0.179584,-0.153804,-0.192313,-0.175556,-0.20053,-0.198758,-0.198919,-0.192958,-0.183935,-0.228727,-0.186029,-0.240811,-0.219221,-0.217126,-0.226149,-0.236461,-0.21906,-0.261435,-0.253218,-0.246129,-0.315412,-0.229533,-0.291243,-0.308645,-0.291404,-0.310256,-0.303166,-0.32943,-0.352793,-0.344092,-0.365038,-0.35666,-0.378573,-0.373578,-0.409992,-0.39404,-0.390657,-0.415309,-0.376156,-0.399519,-0.433033,-0.430455,-0.441733,-0.463324,-0.405319,-0.470091,-0.447373,-0.438188,-0.459618,-0.426426,-0.453334,-0.475408,-0.478308,-0.472669,-0.464613,-0.485076,-0.485076,-0.490554,-0.486203,-0.483142,-0.528257,-0.505216,-0.506827,-0.535346,-0.519395,-0.555648,-0.558226,-0.529385,-0.578044,-0.522779,-0.559676,-0.577561,-0.595768,-0.59029,-0.595446,-0.563382,-0.605919,-0.598829,-0.582072,-0.626704,-0.621225,-0.615264,-0.636854,-0.648294,-0.629926,-0.634115,-0.66489,-0.64765,-0.689059,-0.639594,-0.691314,-0.711294,-0.666501,-0.700015,-0.69792,-0.710971,-0.704527,-0.722895,-0.720478,-0.728534,-0.733529,-0.742713,-0.751897,-0.764465,-0.749802,-0.748352,-0.787183,-0.750608,-0.789761,-0.787344,-0.792822,-0.831331,-0.792017,-0.848249,-0.82537,-0.830848,-0.854694,-0.87854,-0.852277,-0.89707,-0.865006,-0.899648,-0.895942,-0.888852,-0.906737,-0.914793,-0.907059,-0.937673,-0.941218,-0.947501,-0.936223,-0.9301,-0.947824,-0.948629,-0.970381,-0.958136,-0.974248,-0.957491,-0.990199,-0.973604,-0.994227,-0.965547,-0.998578,-0.995678,-0.97022,-1.011307,-1.001156,-1.008245,-1.025485,-1.004862,-1.015012,-1.03193,-1.019846,-1.025324,-1.02758,-1.054166,-1.034508,-1.038859,-1.04482,-1.062061,-1.053038,-1.064477,-1.055777,-1.065928,-1.06915,-1.088646,-1.065444,-1.078173,-1.085746,-1.081073,-1.099603,-1.092352,-1.097991,-1.090257,-1.106853,-1.110076,-1.101053,-1.115232,-1.108464,-1.125705,-1.120871,-1.118937,-1.138433,-1.136017,-1.128605,-1.136339,-1.136661,-1.138595,-1.146006,-1.144234,-1.167436,-1.153418,-1.171786,-1.174847,-1.154062,-1.18097,-1.167436,-1.182259,-1.178231,-1.168725,-1.191604,-1.183387,-1.206267,-1.181776,-1.19676,-1.191604,-1.197888,-1.201594,-1.187093,-1.202238,-1.21529,-1.211261,-1.214806,-1.223346,-1.204816,-1.216901,-1.230435,-1.20675,-1.227213,-1.208845,-1.224957,-1.212873,-1.22689,-1.236397,-1.231402,-1.236236,-1.232208,-1.237364,-1.238491,-1.239458,-1.235108,-1.23978,-1.234947,-1.23978,-1.243003,-1.232369,-1.248481,-1.222701,-1.241069,-1.226568,-1.229307,-1.239942,-1.23253,-1.24123,-1.237364,-1.246386,-1.253959,-1.256054,-1.246386,-1.252993,-1.260726,-1.229952,-1.244131,-1.264593,-1.249448,-1.26846,-1.270233,-1.25267,-1.252026,-1.260565,-1.252348,-1.269105,-1.273294,-1.266366,-1.251704,-1.255571,-1.249287,-1.262982,-1.279095,-1.269911,-1.270394,-1.241553,-1.263143,-1.277322,-1.276517,-1.26121,-1.272811,-1.250898,-1.272972,-1.260082,-1.260404,-1.265721,-1.273294,-1.259115,-1.268299,-1.258954,-1.273133,-1.260565,-1.256054,-1.282478,-1.263949,-1.264432,-1.273616,-1.277806,-1.264432,-1.280706,-1.269427,-1.257343,-1.277967,-1.268138,-1.256215,-1.274905,-1.265399,-1.276033,-1.290696,-1.25976,-1.261371,-1.282156,-1.261371,-1.296818,-1.281511,-1.282478,-1.282962,-1.270394,-1.279256,-1.281834,-1.279417,-1.28699,-1.28554,-1.269749,-1.283123,-1.283767,-1.289568,-1.274422,-1.29569,-1.278611,-1.249287,-1.298913,-1.267494,-1.292951,-1.27845,-1.274261,-1.280061,-1.273294,-1.295207,-1.269105,-1.285056,-1.274744,-1.268138,-1.288923,-1.269427,-1.289245,-1.28699,-1.283284,-1.285217,-1.279417,-1.276356,-1.292307,-1.275067,-1.274261,-1.299074,-1.262338,-1.28554,-1.289407,-1.269911,-1.291823,-1.277645,-1.274744,-1.292146,-1.270233,-1.285701,-1.288762,-1.284251,-1.285056,-1.277806,-1.28989,-1.256698,-1.266849,-1.262177,-1.26411,-1.272972,-1.242842,-1.256537,-1.264271,-1.259438,-1.257826,-1.229307,-1.248481,-1.257665,-1.247192,-1.243164,-1.217062,-1.237847,-1.226729,-1.23688,-1.175814,-1.234302,-1.18951,-1.179198,-1.171625,-1.190638,-1.147456,-1.157124,-1.157285,-1.108787,-1.128766,-1.119582,-1.09493,-1.102986,-1.083329,-1.102664,-1.049171,-1.074628,-1.020007,-1.021135,-0.993905,-1.015012,-1.006151,-0.964258,-0.991811,-0.940573,-0.969253,-0.928328,-0.915116,-0.926878,-0.890141,-0.922688,-0.877574,-0.916405,-0.859206,-0.880152,-0.838904,-0.856628,-0.853083,-0.84841,-0.816024,-0.843738,-0.843899,-0.809579,-0.842932,-0.82682,-0.811029,-0.824564,-0.794756,-0.828914,-0.80684,-0.799912,-0.800234,-0.80104,-0.794273,-0.800718,-0.807001,-0.763337,-0.774615,-0.7925,-0.773649,-0.767043,-0.784766,-0.78106,-0.80974,-0.785894,-0.761081,-0.802329,-0.726762,-0.771393,-0.748997,-0.73369,-0.754797,-0.741263,-0.768654,-0.728856,-0.73369,-0.726762,-0.730467,-0.75238,-0.685836,-0.713066,-0.701949,-0.698887,-0.711133,-0.697115,-0.706299,-0.700337,-0.679552,-0.673591,-0.673591,-0.667951,-0.672141,-0.662795,-0.646844,-0.615103,-0.663118,-0.669079,-0.64765,-0.641044,-0.627026,-0.661184,-0.620581,-0.621387,-0.622676,-0.584006,-0.622676,-0.626543,-0.614297,-0.602857,-0.579494,-0.565315,-0.578044,-0.58175,-0.560482,-0.568699,-0.527129,-0.560643,-0.559193,-0.579978,-0.506022,-0.536958,-0.550653,-0.537763,-0.538408,-0.524229,-0.499738,-0.550814,-0.523906,-0.491843,-0.530835,-0.498127,-0.487654,-0.533574,-0.487976,-0.507955,-0.507311,-0.488298,-0.505377,-0.474764,-0.498127,-0.492004,-0.509889,-0.492487,-0.476536,-0.482336,-0.472508,-0.506183,-0.472669,-0.483303,-0.484109,-0.453979,-0.474925,-0.472508,-0.481531,-0.476053,-0.483142,-0.455429,-0.46993,-0.461068,-0.472186,-0.480564,-0.436577,-0.460585,-0.487976,-0.442378,-0.460262,-0.441572,-0.435127,-0.432871,-0.480564,-0.402419,-0.447211,-0.403063,-0.400485,-0.39259,-0.41547,-0.407092,-0.38534,-0.410636,-0.395974,-0.417403,-0.365038,-0.44415,-0.398552,-0.392268,-0.432227,-0.398713,-0.374222,-0.431421,-0.416114,-0.413698,-0.424654,-0.40967,-0.444472,-0.431099,-0.40693,-0.429327,-0.435611,-0.455268,-0.445922,-0.474764,-0.427715,-0.426426,-0.456557,-0.422237,-0.427877,-0.432388,-0.424493,-0.430616,-0.437061,-0.423526,-0.444633,-0.413053,-0.408864,-0.445117,-0.40967,-0.42401,-0.423526,-0.397746,-0.413859,-0.415309,-0.434644,-0.426426,-0.429971,-0.445761,-0.418531,-0.435288,-0.41982,-0.464291,-0.437383,-0.434322,-0.473958,-0.447534,-0.464452,-0.48137,-0.437866,-0.454623,-0.455912,-0.452045,-0.478147,-0.459457,-0.477825,-0.459457,-0.467674,-0.454462,-0.45124,-0.457201,-0.50151,-0.471863,-0.456557,-0.474119,-0.481209,-0.463968,-0.460746,-0.4456,-0.480725,-0.470413,-0.47992,-0.442861,-0.474119,-0.477986,-0.477342,-0.495871,-0.474603,-0.481531,-0.489909,-0.484592,-0.496193,-0.495871,-0.494743,-0.511178,-0.531479,-0.490876,-0.528257,-0.503605,-0.522456,-0.508922,-0.540341,-0.51295,-0.501671,-0.525195,-0.527451,-0.540341,-0.515045,-0.505377,-0.521973,-0.522779,-0.538569,-0.524873,-0.500544,-0.525518,-0.500705,-0.497966,-0.525195,-0.529062,-0.485881,-0.53873,-0.501349,-0.481853,-0.503927,-0.508922,-0.471219,-0.49861,-0.487815,-0.462679,-0.529385,-0.494743,-0.477019,-0.497966,-0.463968,-0.495226,-0.473314,-0.482014,-0.491359,-0.489104,-0.483303,-0.482175,-0.495065,-0.490715,-0.469285,-0.468319,-0.491843,-0.464613,-0.478953,-0.501188,-0.465418,-0.489587,-0.509244,-0.5115,-0.491359,-0.511017,-0.508439,-0.499738,-0.508439,-0.52149,-0.488298,-0.538408,-0.508439,-0.506666,-0.532607,-0.472186,-0.501671,-0.506505,-0.490876,-0.524068,-0.518751,-0.521329,-0.53164,-0.515206,-0.528257,-0.516173,-0.53728,-0.515206,-0.523745,-0.517462,-0.493132,-0.511178,-0.518912,-0.516978,-0.506022,-0.481853,-0.492648,-0.511983,-0.459618,-0.500382,-0.455268,-0.462196,-0.449789,-0.448984,-0.417242,-0.423043,-0.388401,-0.389207,-0.407897,-0.348926,-0.353276,-0.327174,-0.305744,-0.260791,-0.281415,-0.235817,-0.223571,-0.224216,-0.173462,-0.152354,-0.144781,-0.08726,-0.093544,-0.022166,-0.011209,0.005386,0.076765,0.095777,0.121718,0.177467,0.184073,0.24659,0.295088,0.312167,0.35696,0.383707,0.411742,0.443484,0.468136,0.5031,0.529525,0.559816,0.592202,0.626683,0.662131,0.69065,0.724808,0.756711,0.782974,0.811494,0.831795,0.850808,0.871271,0.876588,0.884322,0.883517,0.87965,0.876427,0.848875,0.83534,0.779913,0.758644,0.705634,0.654558,0.597358,0.500844,0.470392,0.390635,0.356799,0.277687,0.178917,0.145242,0.076442,-0.013948,-0.040856,-0.117229,-0.190702,-0.213743,-0.285121,-0.312995,-0.376639,-0.418692,-0.45849,-0.501027,-0.503766,-0.584006,-0.551942,-0.600279,-0.605113,-0.579817,-0.654578,-0.637177,-0.641688,-0.62767,-0.630248,-0.631215,-0.651678,-0.622998,-0.600602,-0.58465,-0.574177,-0.561448,-0.535507,-0.558387,-0.55017,-0.537119,-0.507955,-0.500866,-0.491198,-0.460424,-0.472025,-0.432227,-0.436416,-0.446406,-0.392752,-0.401452,-0.417081,-0.391946,-0.390496,-0.365522,-0.367455,-0.36246,-0.386468,-0.352632,-0.383729,-0.348281,-0.369066,-0.358432,-0.379217,-0.344414,-0.352148,-0.34377,-0.322663,-0.375833,-0.334908,-0.343931,-0.339581,-0.328302,-0.373739,-0.344253,-0.318473,-0.326691,-0.330235,-0.328946,-0.344575,-0.295755,-0.341192,-0.344575,-0.317507,-0.336519,-0.334425,-0.338614,-0.339903,-0.34667,-0.328141,-0.318796,-0.362299,-0.328624,-0.344092,-0.337808,-0.336519,-0.360366,-0.356499,-0.321374,-0.346026,-0.369227,-0.357465,-0.375672,-0.325724,-0.348603,-0.354887,-0.343448,-0.361977,-0.353437,-0.360527,-0.353921,-0.349248,-0.3681,-0.345864,-0.3797,-0.382601,-0.360366,-0.377928,-0.35102,-0.369711,-0.354726,-0.347315,-0.381795,-0.338453,-0.322985,-0.385501,-0.322501,-0.333136,-0.375995,-0.334586,-0.353598,-0.355371,-0.358593,-0.346992,-0.36101,-0.328624,-0.344737,-0.338936,-0.356821,-0.304939,-0.341997,-0.332008,-0.346831,-0.321535,-0.343609,-0.322018,-0.334425,-0.334425,-0.334425,-0.338453,-0.337969,-0.303005,-0.305906,-0.318634,-0.326046,-0.316701,-0.321212,-0.288988,-0.313317,-0.318151,-0.274325,-0.262724,-0.306389,-0.283348,-0.275453,-0.304617,-0.276742,-0.29511,-0.266914,-0.24629,-0.277387,-0.287215,-0.276581,-0.26208,-0.251446,-0.294466,-0.260146,-0.276098,-0.272231,-0.256279,-0.264174,-0.230177,-0.282059,-0.275775,-0.255313,-0.259018,-0.275775,-0.261274,-0.248384,-0.238233,-0.280609,-0.249673,-0.23775,-0.293821,-0.23775,-0.253218,-0.262241,-0.198275,-0.221799,-0.239845,-0.22051,-0.197952,-0.203108,-0.182162,-0.188929,-0.186996,-0.155093,-0.157832,-0.165566,-0.170884,-0.143654,-0.156382,-0.143331,-0.140914,-0.125124,-0.106112,-0.156543,-0.128024,-0.085649,-0.119646,-0.086616,-0.124963,-0.125124,-0.084682,-0.10015,-0.103695,-0.065508,-0.130925,-0.121741,-0.074853,-0.105628,-0.078398,-0.111106,-0.109817,-0.114329,-0.074209,-0.103695,-0.094027,-0.082749,-0.097733,-0.084199,-0.102406,-0.082587,-0.106434,-0.055196,-0.098217,-0.074531,-0.061319,-0.063253,-0.052941,-0.061641,-0.056163,-0.047946,-0.05858,-0.020716,-0.031028,-0.019588,-0.031511,-0.010726,-0.026355,0.00877,0.02021,-0.016849,0.023593,0.016987,0.032616,0.01586,-0.009598,0.044701,0.041317,0.060652,0.036967,0.041156,0.006837,0.095616,0.062424,0.041478,0.051951,0.072253,0.043573,0.067097,0.050179,0.060491,0.031327,0.04309,0.073542,0.047923,0.066291,0.083048,0.05888,0.07467,0.078376,0.073059,0.050662,0.077087,0.068225,0.038739,0.102867,0.064197,0.064036,0.073703,0.08756,0.097711,0.089332,0.097872,0.086271,0.127841,0.066453,0.092232,0.122846,0.102544,0.131708,0.123491,0.12768,0.125746,0.115918,0.126069,0.152171,0.127358,0.107056,0.12623,0.155232,0.165061,0.165705,0.133803,0.162322,0.138797,0.151365,0.18794,0.145242,0.157166,0.194063,0.174889,0.172472,0.180368,0.151687,0.188585,0.169411,0.201153,0.156521,0.175856,0.190357,0.171828,0.186329,0.168283,0.178434,0.208242,0.153943,0.155393,0.1649,0.158293,0.172472,0.217748,0.145565,0.17215,0.154427,0.122363,0.196158,0.153782,0.15491,0.163933,0.14347,0.166994,0.149593,0.161516,0.167478,0.149432,0.178273,0.185685,0.165866,0.173923,0.1678,0.188424,0.155554,0.196963,0.189068,0.192452,0.215815,0.1707,0.212754,0.228222,0.22226,0.236439,0.217265,0.200991,0.270597,0.250296,0.22661,0.275431,0.240789,0.27092,0.278654,0.264636,0.27962,0.239339,0.258674,0.268503,0.271403,0.266891,0.25803,0.267375,0.260608,0.269631,0.263024,0.264152,0.264475,0.243851,0.228383,0.245623,0.216943,0.191485,0.237889,0.158938,0.183429,0.20792,0.173278,0.153621,0.155554,0.098516,0.110923,0.134447,0.081759,0.090299,0.065969,0.026816,0.041962,0.007642,-0.003475,-0.001703,-0.019104,-0.034089,-0.079204,-0.070986,-0.073403,-0.075176,-0.126574,-0.140592,-0.153804,-0.157027,-0.173623,-0.201981,-0.248384,-0.251446,-0.250962,-0.270297,-0.245967,-0.307356,-0.308806,-0.350698,-0.364394,-0.364233,-0.380667,-0.412086,-0.417081,-0.436416,-0.444795,-0.476375,-0.478953,-0.555809,-0.551298,-0.520845,-0.578366,-0.591579,-0.592545,-0.621064,-0.625092,-0.653772,-0.677458,-0.661829,-0.670368,-0.691475,-0.692926,-0.731595,-0.707266,-0.71226,-0.711455,-0.711133,-0.734334,-0.705977,-0.743519,-0.724506,-0.745452,-0.739168,-0.767204,-0.725312,-0.727245,-0.756247,-0.748674,-0.728051,-0.757214,-0.741907,-0.713066,-0.747869,-0.743357,-0.750608,-0.744324,-0.760759,-0.76382,-0.772682,-0.780738,-0.765754,-0.788633,-0.793467,-0.79959,-0.831009,-0.823597,-0.83407,-0.853566,-0.82682,-0.850344,-0.869195,-0.869195,-0.885147,-0.883696,-0.896264,-0.911893,-0.899325,-0.925911,-0.927522,-0.925266,-0.939768,-0.94444,-0.95443,-0.968448,-0.979565,-0.960553,-0.985366,-0.984399,-0.992133,-0.999867,-1.015657,-1.018235,-1.014529,-1.024841,-1.043531,-1.048043,-1.053038,-1.058516,-1.077529,-1.0735,-1.080107,-1.09638,-1.085424,-1.105564,-1.117648,-1.108464,-1.121193,-1.128121,-1.137789,-1.146328,-1.1394,-1.14649,-1.147779,-1.147617,-1.151001,-1.164052,-1.156802,-1.149712,-1.178714,-1.168402,-1.18387,-1.195632,-1.184193,-1.199822,-1.197405,-1.19096,-1.189993,-1.199983,-1.195149,-1.214484,-1.216901,-1.19676,-1.205783,-1.19386,-1.211423,-1.233658,-1.230435,-1.214001,-1.20675,-1.20965,-1.21964,-1.233335,-1.232369,-1.227696,-1.237041,-1.219801,-1.242681,-1.23978,-1.238975,-1.241714,-1.224474,-1.217062,-1.252348,-1.232852,-1.253959,-1.245259,-1.217384,-1.234302,-1.237202,-1.241069,-1.250898,-1.255571,-1.238814,-1.252831,-1.239942,-1.221896,-1.247998,-1.230919,-1.245742,-1.251865,-1.252348,-1.260565,-1.261854,-1.256215,-1.245581,-1.259438,-1.246225,-1.260726,-1.240747,-1.252026,-1.246225,-1.258471,-1.241714,-1.265721,-1.252026,-1.245903,-1.257987,-1.237686,-1.230113,-1.251059,-1.232852,-1.247837,-1.246548,-1.243647,-1.239297,-1.247192,-1.233335,-1.255087,-1.256537,-1.253637,-1.235591,-1.251059,-1.229952,-1.251704,-1.249287,-1.242842,-1.260565,-1.244292,-1.255248,-1.257343,-1.24542,-1.259438,-1.244936,-1.243647,-1.23253,-1.255409,-1.257343,-1.259921,-1.274744,-1.25122,-1.258471,-1.255087,-1.250898,-1.264916,-1.250415,-1.260082,-1.254282,-1.246548,-1.249126,-1.253476,-1.253637,-1.260726,-1.24397,-1.230435,-1.254765,-1.250253,-1.248481,-1.239297,-1.243647,-1.242036,-1.24687,-1.234947,-1.224796,-1.252026,-1.23978,-1.249931,-1.226568,-1.225279,-1.242681,-1.251704,-1.227857,-1.223668,-1.242842,-1.226729,-1.221412,-1.224635,-1.209167,-1.232852,-1.219157,-1.192732,-1.209972,-1.192732,-1.189993,-1.206589,-1.172753,-1.175009,-1.217706,-1.172431,-1.180809,-1.17952,-1.16228,-1.174686,-1.141656,-1.147779,-1.15229,-1.135694,-1.127799,-1.134889,-1.07205,-1.118293,-1.116521,-1.084135,-1.092352,-1.109592,-1.060449,-1.098636,-1.08059,-1.040792,-1.08059,-1.08204,-1.069795,-1.07624,-1.027902,-1.070439,-1.039987,-1.032414,-1.015979,-1.059483,-1.01179,-1.014851,-1.041115,-0.996322,-0.997128,-1.015496,-1.009051,-1.007601,-1.0047,-0.996483,-0.995033,-0.963453,-1.004217,-1.003734,-0.939445,-0.972153,-0.971992,-0.973926,-0.95298,-0.91866,-0.906898,-0.92011,-0.931872,-0.900937,-0.923977,-0.933645,-0.90996,-0.927522,-0.879507,-0.897714,-0.891591,-0.874673,-0.884341,-0.887241,-0.904159,-0.875962,-0.894331,-0.865651,-0.879024,-0.852116,-0.875962,-0.860172,-0.859367,-0.854211,-0.825692,-0.814735,-0.812157,-0.847121,-0.816024,-0.796689,-0.808935,-0.820536,-0.7925,-0.787022,-0.807807,-0.7838,-0.768332,-0.777516,-0.754314,-0.78815,-0.738685,-0.736429,-0.766076,-0.744163,-0.754475,-0.745774,-0.726117,-0.747708,-0.728695,-0.729823,-0.772199,-0.716772,-0.721606,-0.701949,-0.689381,-0.742713,-0.69357,-0.734334,-0.730145,-0.702593,-0.721283,-0.701787,-0.682453,-0.683903,-0.702915,-0.672785,-0.678102,-0.670046,-0.666824,-0.636049,-0.689381,-0.666018,-0.631054,-0.688736,-0.641688,-0.681002,-0.673107,-0.649422,-0.636371,-0.69357,-0.645233,-0.658928,-0.630087,-0.644266,-0.662151,-0.651839,-0.63621,-0.667951,-0.611236,-0.637499,-0.626381,-0.650389,-0.636693,-0.648294,-0.614297,-0.653128,-0.613169,-0.605758,-0.639594,-0.594318,-0.613814,-0.613975,-0.642816,-0.618647,-0.622192,-0.601407,-0.583684,-0.640399,-0.5774,-0.603502,-0.608819,-0.599635,-0.590128,-0.612202,-0.598346,-0.618809,-0.629765,-0.594962,-0.616392,-0.589645,-0.618325,-0.574338,-0.585778,-0.625254,-0.59609,-0.588517,-0.598668,-0.591095,-0.55017,-0.614942,-0.591095,-0.59754,-0.602374,-0.560643,-0.563704,-0.574177,-0.578205,-0.587873,-0.595768,-0.601729,-0.559837,-0.582233,-0.583845,-0.5803,-0.548236,-0.584489,-0.548236,-0.597379,-0.558226,-0.564349,-0.576755,-0.54872,-0.591095,-0.518589,-0.581106,-0.569666,-0.540986,-0.563865,-0.564993,-0.560643,-0.574499,-0.545014,-0.563221,-0.557581,-0.512789,-0.542275,-0.535185,-0.53583,-0.532124,-0.561932,-0.546786,-0.521006,-0.55017,-0.554037,-0.523745,-0.551781,-0.545819,-0.57031,-0.52439,-0.557098,-0.531318,-0.565315,-0.557581,-0.529546,-0.52439,-0.539052,-0.552103,-0.516011,-0.559837,-0.54453,-0.534702,-0.535507,-0.53019,-0.522134,-0.529224,-0.543886,-0.527129,-0.534541,-0.501188,-0.511017,-0.558548,-0.497804,-0.525679,-0.529868,-0.515367,-0.5115,-0.522134,-0.530835,-0.523906,-0.527451,-0.522618,-0.523584,-0.512789,-0.511983,-0.487976,-0.518428,-0.49281,-0.534863,-0.505216,-0.502316,-0.506344,-0.484753,-0.498449,-0.503283,-0.500705,-0.469447,-0.482336,-0.489104,-0.476214,-0.482175,-0.468158,-0.470252,-0.449306,-0.4485,-0.46993,-0.438833,-0.439639,-0.438511,-0.424493,-0.444956,-0.414503,-0.417403,-0.399196,-0.394524,-0.413537,-0.40113,-0.392429,-0.410959,-0.381312,-0.3739,-0.385179,-0.413214,-0.351181,-0.361332,-0.403063,-0.326046,-0.385018,-0.356821,-0.355532,-0.370839,-0.371966,-0.325885,-0.355371,-0.343125,-0.342964,-0.342642,-0.323629,-0.291727,-0.330235,-0.315895,-0.341514,-0.316056,-0.300427,-0.314767,-0.302361,-0.310578,-0.274648,-0.300427,-0.295755,-0.299944,-0.307678,-0.263047,-0.281092,-0.307356,-0.240973,-0.289793,-0.259663,-0.275775,-0.296399,-0.249673,-0.290438,-0.2993,-0.253701,-0.28641,-0.271586,-0.231627,-0.2421,-0.265625,-0.249834,-0.264174,-0.238233,-0.191669,-0.235978,-0.217287,-0.193119,-0.2334,-0.202625,-0.190218,-0.203108,-0.185707,-0.169111,-0.189574,-0.180229,-0.194247,-0.157027,-0.161861,-0.158477,-0.161861,-0.143009,-0.159766,-0.148326,-0.13592,-0.15751,-0.148326,-0.109012,-0.126091,-0.102245,-0.12303,-0.134308,-0.103211,-0.109656,-0.116585,-0.135758,-0.130602,-0.083876,-0.09725,-0.152999,-0.119646,-0.123674,-0.080976,-0.120613,-0.122869,-0.138498,-0.11739,-0.113684,-0.140109,-0.09435,-0.132536,-0.088388,-0.104017,-0.080332,-0.110301,-0.098217,-0.099183,-0.091288,-0.075659,-0.107078,-0.074209,-0.046334,-0.065831,-0.060352,-0.046012,-0.085165,-0.03425,-0.047301,-0.038762,-0.053424,-0.072759,-0.041017,-0.040695,-0.059224,-0.060352,-0.05858,-0.04859,-0.043756,-0.051329,-0.073564,-0.069859,-0.079526,-0.07147,-0.058258,-0.076142,-0.063897,-0.076465,-0.096444,-0.092416,-0.068409,-0.102083,-0.104661,-0.099022,-0.122385,-0.10595,-0.0987,-0.154288,-0.103856,-0.118518,-0.128347,-0.133825,-0.106756,-0.127541,-0.133664,-0.12738,-0.183451,-0.103534,-0.15606,-0.142365,-0.124641,-0.138336,-0.144459,-0.143331,-0.146232,-0.14607,-0.142203,-0.150421,-0.120291,-0.179745,-0.143331,-0.166533,-0.188446,-0.187802,-0.180068,-0.179745,-0.1675,-0.180873,-0.218093,-0.200208,-0.175878,-0.231466,-0.196019,-0.216804,-0.214548,-0.21197,-0.21197,-0.212454,-0.221638,-0.230661,-0.238072,-0.214387,-0.208425,-0.22776,-0.23195,-0.250157,-0.249351,-0.212776,-0.260146,-0.226149,-0.250318,-0.248223,-0.225344,-0.245967,-0.235172,-0.21906,-0.286087,-0.251123,-0.253862,-0.261435,-0.230016,-0.249996,-0.241456,-0.242262,-0.235978,-0.27787,-0.229372,-0.283993,-0.245645,-0.273036,-0.244356,-0.297849,-0.267236,-0.226149,-0.297527,-0.245323,-0.285282,-0.259985,-0.267719,-0.26788,-0.28222,-0.296077,-0.299783,-0.276259,-0.277226,-0.301716,-0.27787,-0.307839,-0.299461,-0.289954,-0.307356,-0.313156,-0.278837,-0.277226,-0.309934,-0.312351,-0.361655,-0.321857,-0.313317,-0.333619,-0.323307,-0.33378,-0.329913,-0.331202,-0.330074,-0.329752,-0.346348,-0.351504,-0.367294,-0.357465,-0.397585,-0.368744,-0.364233,-0.375028,-0.376639,-0.390979,-0.427393,-0.370516,-0.414503,-0.448339,-0.417403,-0.423043,-0.441894,-0.42691,-0.440928,-0.472991,-0.487331,-0.440766,-0.515689,-0.470736,-0.497482,-0.528096,-0.483142,-0.551459,-0.513433,-0.561932,-0.55017,-0.545658,-0.566121,-0.600279,-0.612202,-0.626543,-0.617842,-0.634599,-0.619292,-0.633149,-0.634921,-0.645394,-0.639432,-0.661184,-0.655223,-0.637338,-0.641849,-0.640238,-0.658445,-0.596896,-0.639432,-0.612202,-0.630248,-0.608658,-0.611075,-0.609302,-0.599957,-0.580461,-0.569827,-0.576272,-0.58175,-0.577239,-0.535991,-0.533091,-0.524873,-0.508761,-0.478147,-0.493454,-0.505861,-0.438833,-0.463485,-0.446889,-0.403225,-0.404352,-0.339903,-0.349087,-0.339903,-0.300266,-0.275292,-0.229694,-0.198275,-0.165244,-0.163955,-0.104984,-0.07437,-0.007665,0.013765,0.055818,0.072736,0.128969,0.152171,0.210337,0.284454,0.275914,0.357766,0.367917,0.407714,0.442195,0.45009,0.48441,0.491016,0.509062,0.516312,0.525819,0.531297,0.522757,0.524208,0.509706,0.489727,0.486021,0.448801,0.38564,0.388541,0.303144,0.276398,0.197447,0.135092,0.095294,0.010381,-0.053907,-0.145909,-0.185224,-0.275292,-0.330719,-0.403708,-0.487492,-0.565638,-0.622514,-0.677458,-0.736268,-0.816991,-0.826175,-0.899164,-0.948307,-0.987299,-1.027419,-1.051426,-1.072373,-1.097025,-1.108948,-1.098152,-1.119904,-1.123771,-1.143106,-1.126027,-1.133116,-1.125221,-1.135855,-1.144878,-1.12941,-1.153257,-1.142945,-1.153096,-1.153579,-1.140206,-1.158091,-1.149712,-1.148101,-1.135694,-1.146328,-1.126994,-1.120549,-1.12941,-1.093158,-1.122643,-1.097186,-1.090257,-1.102986,-1.092352,-1.105886,-1.09348,-1.080107,-1.078334,-1.105564,-1.066894,-1.085262,-1.057549,-1.088968,-1.070439,-1.097991,-1.068022,-1.088646,-1.097991,-1.082846,-1.099603,-1.098152,-1.087035,-1.082362,-1.080107,-1.105564,-1.105886,-1.097669,-1.102019,-1.09928,-1.102019,-1.108787,-1.114587,-1.100408,-1.105564,-1.104114,-1.109431,-1.120871,-1.109914,-1.128444,-1.119582,-1.11507,-1.144878,-1.146167,-1.141334,-1.133277,-1.134566,-1.147295,-1.148745,-1.163246,-1.148423,-1.164697,-1.172753,-1.160668,-1.173558,-1.174525,-1.177103,-1.184354,-1.167758,-1.189671,-1.185804,-1.190154,-1.188865,-1.182098,-1.176942,-1.186448,-1.178553,-1.176298,-1.184031,-1.174525,-1.185804,-1.184837,-1.193054,-1.17372,-1.192732,-1.179359,-1.185482,-1.200949,-1.174364,-1.197083,-1.176298,-1.179198,-1.174686,-1.179842,-1.170497,-1.158735,-1.169691,-1.142461,-1.144073,-1.157768,-1.129088,-1.139078,-1.138111,-1.11781,-1.122643,-1.146167,-1.124738,-1.129733,-1.102986,-1.110237,-1.134244,-1.119421,-1.116682,-1.11781,-1.111848,-1.112976,-1.120226,-1.106853,-1.100086,-1.088968,-1.065122,-1.09638,-1.097669,-1.0706,-1.104275,-1.065605,-1.09203,-1.085585,-1.053521,-1.071406,-1.080751,-1.060611,-1.069795,-1.099925,-1.079301,-1.077045,-1.06915,-1.077045,-1.058355,-1.089129,-1.062544,-1.082684,-1.059805,-1.057388,-1.074145,-1.036764,-1.053682,-1.070922,-1.051104,-1.059322,-1.035797,-1.04901,-1.039987,-1.034992,-1.028547,-1.030158,-1.010823,-1.000834,-1.010984,-0.991649,-0.966353,-0.995355,-0.984882,-0.957491,-0.989394,-0.948307,-0.955235,-0.98601,-0.931872,-0.953141,-0.945568,-0.922044,-0.92285,-0.94879,-0.940895,-0.918499,-0.927039,-0.892558,-0.904159,-0.912215,-0.881602,-0.902387,-0.889336,-0.869034,-0.87709,-0.88273,-0.866295,-0.850344,-0.881441,-0.842449,-0.854372,-0.831009,-0.819408,-0.847443,-0.848732,-0.821986,-0.826659,-0.806196,-0.824886,-0.812963,-0.786055,-0.81973,-0.780255,-0.799267,-0.794111,-0.797656,-0.761242,-0.782994,-0.766398,-0.746258,-0.749802,-0.736107,-0.699048,-0.768171,-0.678908,-0.721283,-0.711616,-0.709844,-0.707427,-0.686964,-0.669563,-0.65345,-0.648616,-0.655545,-0.687931,-0.624448,-0.645072,-0.612847,-0.622676,-0.62767,-0.619614,-0.612041,-0.604146,-0.602374,-0.568216,-0.598346,-0.583522,-0.553231,-0.599151,-0.562093,-0.536313,-0.574499,-0.547753,-0.510211,-0.542758,-0.505538,-0.490393,-0.517623,-0.528257,-0.528579,-0.482014,-0.526162,-0.482659,-0.48137,-0.506022,-0.460101,-0.480081,-0.463807,-0.487815,-0.449628,-0.478631,-0.456879,-0.462518,-0.435449,-0.450112,-0.428682,-0.441089,-0.448017,-0.407736,-0.424332,-0.39968,-0.412892,-0.43835,-0.396135,-0.408864,-0.408058,-0.397585,-0.383084,-0.364555,-0.376961,-0.369066,-0.393557,-0.375672,-0.367777,-0.358915,-0.3681,-0.382762,-0.365844,-0.371,-0.364394,-0.368422,-0.347798,-0.370516,-0.30365,-0.336036,-0.359077,-0.350537,-0.341514,-0.309934,-0.328302,-0.339097,-0.327818,-0.312673,-0.336036,-0.339742,-0.286571,-0.320568,-0.291566,-0.271103,-0.287215,-0.287054,-0.282543,-0.295271,-0.267236,-0.248707,-0.260791,-0.263369,-0.265625,-0.243551,-0.271103,-0.26788,-0.266108,-0.229855,-0.264497,-0.230177,-0.241939,-0.280126,-0.230661,-0.244195,-0.265463,-0.207942,-0.245323,-0.238878,-0.206653,-0.2392,-0.223732,-0.197952,-0.238556,-0.20617,-0.196019,-0.231788,-0.206009,-0.205364,-0.195858,-0.222927,-0.192152,-0.219543,-0.178134,-0.194085,-0.201981,-0.16605,-0.195374,-0.174751,-0.197791,-0.202303,-0.153643,-0.177329,-0.164277,-0.199241,-0.174912,-0.150099,-0.167339,-0.156543,-0.164922,-0.153643,-0.147198,-0.153804,-0.162666,-0.134147,-0.195052,-0.131086,-0.170722,-0.196502,-0.133503,-0.196019,-0.175073,-0.15026,-0.173784,-0.206009,-0.141881,-0.160088,-0.168467,-0.169272,-0.188929,-0.1646,-0.170561,-0.199241,-0.150904,-0.197952,-0.193763,-0.1675,-0.168789,-0.177006,-0.198919,-0.201175,-0.157832,-0.158316,-0.172334,-0.155738,-0.167661,-0.145587,-0.149454,-0.16605,-0.144459,-0.158316,-0.157994,-0.192635,-0.166372,-0.124158,-0.172495,-0.169111,-0.202786,-0.186835,-0.172978,-0.180712,-0.209714,-0.198275,-0.173462,-0.214548,-0.165728,-0.193602,-0.224538,-0.225344,-0.204236,-0.240006,-0.205525,-0.233239,-0.237911,-0.224699,-0.281737,-0.254507,-0.249996,-0.282381,-0.255151,-0.314767,-0.285765,-0.29076,-0.318957,-0.284637,-0.293499,-0.361816,-0.335391,-0.322985,-0.34667,-0.342803,-0.328785,-0.365844,-0.359399,-0.371644,-0.357143,-0.381795,-0.417242,-0.421432,-0.394685,-0.375511,-0.42127,-0.446406,-0.409831,-0.457523,-0.450434,-0.433999,-0.493454,-0.450434,-0.464129,-0.498771,-0.486848,-0.500866,-0.475408,-0.492165,-0.512467,-0.502638,-0.527129,-0.527773,-0.498449,-0.50296,-0.559676,-0.520201,-0.53728,-0.504733,-0.54163,-0.567732,-0.547108,-0.527773,-0.567571,-0.560965,-0.574983,-0.574338,-0.583039,-0.545014,-0.599474,-0.57176,-0.59464,-0.596251,-0.591095,-0.579172,-0.623159,-0.572083,-0.588517,-0.617842,-0.566927,-0.621064,-0.607208,-0.623965,-0.60463,-0.613814,-0.617036,-0.603502,-0.598346,-0.594479,-0.622514,-0.570794,-0.608658,-0.599957,-0.612041,-0.594962,-0.625576,-0.599151,-0.614136,-0.626865,-0.608013,-0.616069,-0.587389,-0.609141,-0.653611,-0.61752,-0.601246,-0.642333,-0.604952,-0.628476,-0.626381,-0.629926,-0.653289,-0.642494,-0.650067,-0.63766,-0.616553,-0.665535,-0.668435,-0.643783,-0.632343,-0.641688,-0.612041,-0.632343,-0.672624,-0.601891,-0.636693,-0.626865,-0.654739,-0.645072,-0.668435,-0.635404,-0.662151,-0.658445,-0.645072,-0.672946,-0.620098,-0.666824,-0.653128,-0.617681,-0.660701,-0.640399,-0.62332,-0.668918,-0.633954,-0.624931,-0.640077,-0.612041,-0.64201,-0.622353,-0.619614,-0.627026,-0.657962,-0.616714,-0.630409,-0.64201,-0.613008,-0.628637,-0.654578,-0.597057,-0.618647,-0.623642,-0.599796,-0.603985,-0.611558,-0.600279,-0.622514,-0.619131,-0.613653,-0.649261,-0.608497,-0.60318,-0.632343,-0.603502,-0.635082,-0.625254,-0.603502,-0.629443,-0.624287,-0.60463,-0.604146,-0.618809,-0.596896,-0.618325,-0.582878,-0.617358,-0.625898,-0.605919,-0.602535,-0.623481,-0.590128,-0.600924,-0.629282,-0.600602,-0.608335,-0.61043,-0.612686,-0.630571,-0.610913,-0.613653,-0.595607,-0.606885,-0.583039,-0.610108,-0.611397,-0.585778,-0.598507,-0.598024,-0.575788,-0.60318,-0.615264,-0.612364,-0.611558,-0.559354,-0.573533,-0.598346,-0.554198,-0.583361,-0.576755,-0.575305,-0.559193,-0.566604,-0.559998,-0.540502,-0.55452,-0.543564,-0.543725,-0.537763,-0.535185,-0.557259,-0.504733,-0.543886,-0.543564,-0.526807,-0.516011,-0.521812,-0.504088,-0.5086,-0.551136,-0.530674,-0.530996,-0.5144,-0.511983,-0.516817,-0.496354,-0.522618,-0.545175,-0.478631,-0.505216,-0.558387,-0.480886,-0.519234,-0.495549,-0.511822,-0.492971,-0.502799,-0.489104,-0.489426,-0.506988,-0.486848,-0.48572,-0.524068,-0.484592,-0.518589,-0.487492,-0.478953,-0.520845,-0.486848,-0.479114,-0.48862,-0.470736,-0.462196,-0.491359,-0.480242,-0.470252,-0.479275,-0.485559,-0.4369,-0.48572,-0.450917,-0.478631,-0.458007,-0.450434,-0.482336,-0.42981,-0.43835,-0.467674,-0.419498,-0.461229,-0.479597,-0.421432,-0.426588,-0.431905,-0.41112,-0.418048,-0.430938,-0.410959,-0.451723,-0.390335,-0.428038,-0.404514,-0.409025,-0.402741,-0.406608,-0.435449,-0.387596,-0.405319,-0.39259,-0.441411,-0.404352,-0.426749,-0.411442,-0.418531,-0.404191,-0.405803,-0.395168,-0.386145,-0.419659,-0.381634,-0.402258,-0.370355,-0.375833,-0.406286,-0.38969,-0.36955,-0.376639,-0.368422,-0.385823,-0.382923,-0.394363,-0.369389,-0.395168,-0.389207,-0.379217,-0.376478,-0.376156,-0.374867,-0.382601,-0.38679,-0.364071,-0.419337,-0.326046,-0.409347,-0.358593,-0.369389,-0.39259,-0.372611,-0.380345,-0.379378,-0.350215,-0.363749,-0.392429,-0.343125,-0.370355,-0.324435,-0.3768,-0.359238,-0.341192,-0.321212,-0.319279,-0.366005,-0.338775,-0.33668,-0.3109,-0.312512,-0.346187,-0.324757,-0.324757,-0.327174,-0.321535,-0.298655,-0.285121,-0.301233,-0.265302,-0.303489,-0.305583,-0.286087,-0.290277,-0.294144,-0.273681,-0.303811,-0.274648,-0.293338,-0.29366,-0.267236,-0.266914,-0.235494,-0.265786,-0.254829,-0.247901,-0.26498,-0.249996,-0.230177,-0.220026,-0.224377,-0.22486,-0.221477,-0.206653,-0.178295,-0.230016,-0.178295,-0.201175,-0.178779,-0.181679,-0.197308,-0.166855,-0.189574,-0.193924,-0.19038,-0.160088,-0.183451,-0.167339,-0.170078,-0.179423,-0.15461,-0.159605,-0.152193,-0.142848,-0.178779,-0.177812,-0.147682,-0.143976,-0.165083,-0.152193,-0.141398,-0.14172,-0.137531,-0.144459,-0.15896,-0.086938,-0.146876,-0.161216,-0.111268,-0.154771,-0.130119,-0.117874,-0.114007,-0.129958,-0.098217,-0.15171,-0.087099,-0.125769,-0.114651,-0.094027,-0.132053,-0.132858,-0.150421,-0.134308,-0.139948,-0.124641,-0.123513,-0.144137,-0.132375,-0.18329,-0.147037,-0.143815,-0.145265,-0.120291,-0.167178,-0.133986,-0.116424,-0.134953,-0.154127,-0.143331,-0.133503,-0.168789,-0.128347,-0.163472,-0.166694,-0.151065,-0.135275,-0.142203,-0.122707,-0.181034,-0.152838,-0.138336,-0.178295,-0.124158,-0.158316,-0.148648,-0.130764,-0.144298,-0.134308,-0.149615,-0.117551,-0.146715,-0.162827,-0.142203,-0.147682,-0.132697,-0.157349,-0.162022,-0.176523,-0.139303,-0.149776,-0.127541,-0.149937,-0.117713,-0.138659,-0.167983,-0.12158,-0.174428,-0.162505,-0.143009,-0.146876,-0.154288,-0.146232,-0.16315,-0.189574,-0.166694,-0.21052,-0.166533,-0.168467,-0.202464,-0.181195,-0.195697,-0.19908,-0.220026,-0.225182,-0.242906,-0.208748,-0.274809,-0.229855,-0.246612,-0.299783,-0.251929,-0.284637,-0.264819,-0.252735,-0.265947,-0.289954,-0.311223,-0.264497,-0.33813,-0.319279,-0.305906,-0.332813,-0.336358,-0.352954,-0.368422,-0.353759,-0.371805,-0.373739,-0.385823,-0.390979,-0.414181,-0.397907,-0.447534,-0.438027,-0.476053,-0.466869,-0.490554,-0.472669,-0.538408,-0.511017,-0.514722,-0.54453,-0.519717,-0.561126,-0.594479,-0.566443,-0.615908,-0.628959,-0.61188,-0.669563,-0.6462,-0.675685,-0.665373,-0.667951,-0.697598,-0.723861,-0.735946,-0.72789,-0.765109,-0.777677,-0.744808,-0.797978,-0.753508,-0.753508,-0.808129,-0.773004,-0.800718,-0.807968,