-0.486365,-0.489748,-0.396457,-0.35666,-0.336519,-0.283832,-0.218576,-0.195536,-0.108206,-0.07727,-0.020877,0.005064,0.055174,0.090138,0.156038,0.204214,0.28107,0.283326,0.392891,0.376778,0.454924,0.503906,0.512607,0.553371,0.576251,0.595425,0.617499,0.637317,0.657619,0.670831,0.689522,0.695161,0.700801,0.712885,0.703056,0.703701,0.699512,0.68211,0.66342,0.632484,0.586885,0.55756,0.47877,0.427372,0.367755,0.27672,0.230961,0.149271,0.067903,0.035839,-0.050524,-0.092899,-0.174428,-0.254346,-0.304133,-0.389207,-0.492648,-0.507311,-0.59319,-0.658284,-0.699048,-0.758503,-0.819891,-0.810868,-0.848249,-0.894331,-0.88998,-0.90996,-0.915277,-0.899003,-0.929778,-0.918499,-0.907704,-0.930422,-0.917371,-0.915277,-0.932195,-0.936545,-0.938479,-0.954108,-0.940251,-0.955719,-0.966031,-0.958136,-0.973281,-0.978115,-0.980371,-0.9931,-1.002928,-1.004217,-1.020974,-1.03467,-1.026291,-1.029352,-1.03048,-1.042565,-1.045787,-1.042887,-1.034186,-1.018879,-1.010823,-1.011951,-0.990683,-0.979404,-0.931872,-0.951046,-0.924461,-0.903998,-0.871612,-0.885469,-0.823114,-0.826175,-0.821986,-0.775582,-0.794273,-0.756408,-0.756247,-0.777193,-0.756892,-0.751897,-0.765109,-0.759148,-0.786055,-0.833103,-0.786216,-0.835037,-0.838259,-0.831009,-0.856305,-0.856789,-0.832781,-0.870968,-0.87854,-0.838904,-0.834392,-0.82827,-0.781705,-0.791856,-0.74658,-0.7179,-0.724989,-0.677941,-0.646522,-0.655223,-0.640399,-0.62042,-0.60318,-0.593995,-0.591256,-0.595929,-0.59174,-0.585939,-0.604307,-0.620742,-0.61752,-0.665373,-0.668274,-0.691153,-0.711455,-0.728373,-0.754958,-0.807646,-0.771554,-0.830848,-0.802973,-0.844221,-0.818441,-0.858078,-0.812802,-0.846477,-0.799106,-0.802812,-0.783155,-0.774293,-0.764948,-0.738846,-0.717416,-0.733851,-0.710649,-0.716772,-0.699532,-0.660217,-0.68777,-0.692281,-0.637338,-0.659734,-0.687931,-0.664568,-0.665857,-0.648939,-0.67343,-0.700821,-0.684064,-0.710971,-0.724506,-0.772037,-0.734173,-0.759148,-0.754314,-0.764626,-0.746902,-0.768332,-0.73949,-0.750125,-0.729178,-0.736429,-0.763981,-0.725956,-0.733529,-0.729501,-0.721928,-0.710005,-0.734979,-0.702593,-0.703399,-0.706943,-0.678102,-0.650067,-0.698082,-0.61897,-0.66634,-0.649744,-0.60898,-0.631215,-0.595446,-0.607852,-0.61478,-0.582395,-0.578366,-0.592545,-0.569666,-0.545819,-0.556776,-0.545819,-0.546625,-0.537602,-0.523584,-0.540341,-0.529546,-0.53438,-0.528257,-0.549686,-0.533896,-0.555003,-0.563704,-0.574016,-0.594962,-0.601729,-0.612525,-0.658123,-0.668274,-0.647972,-0.685031,-0.69212,-0.687125,-0.720961,-0.71226,-0.729178,-0.710971,-0.77671,-0.725956,-0.748191,-0.756086,-0.740941,-0.749802,-0.714194,-0.69357,-0.698404,-0.709844,-0.662312,-0.668918,-0.672463,-0.652161,-0.658445,-0.622514,-0.635082,-0.647811,-0.575627,-0.634921,-0.58755,-0.565477,-0.610269,-0.594801,-0.588356,-0.590773,-0.524068,-0.538247,-0.569827,-0.519717,-0.544047,-0.528257,-0.49716,-0.521812,-0.50151,-0.500382,-0.500221,-0.48427,-0.471219,-0.506183,-0.518589,-0.461229,-0.510211,-0.509244,-0.470091,-0.468158,-0.485881,-0.436416,-0.46703,-0.449628,-0.411764,-0.412731,-0.40113,-0.383567,-0.399035,-0.337164,-0.357788,-0.334908,-0.329752,-0.312995,-0.347637,-0.302361,-0.323307,-0.374544,-0.344575,-0.380989,-0.401452,-0.386307,-0.424654,-0.453656,-0.4427,-0.501349,-0.499416,-0.533735,-0.560321,-0.587389,-0.555809,-0.641849,-0.594962,-0.602374,-0.642816,-0.604791,-0.58465,-0.638949,-0.59029,-0.576433,-0.608174,-0.539213,-0.545175,-0.533574,-0.470091,-0.450112,-0.442055,-0.405964,-0.384856,-0.385662,-0.355371,-0.354726,-0.334425,-0.308,-0.315251,-0.292532,-0.270458,-0.278031,-0.279803,-0.269653,-0.272714,-0.284959,-0.303005,-0.299461,-0.323468,-0.321374,-0.317668,-0.344253,-0.351181,-0.333297,-0.391624,-0.380184,-0.385823,-0.384695,-0.401613,-0.435127,-0.4369,-0.432871,-0.465418,-0.481853,-0.468963,-0.532446,-0.521651,-0.521812,-0.54308,-0.546464,-0.541147,-0.54163,-0.522618,-0.549525,-0.507311,-0.52729,-0.521006,-0.526484,-0.51295,-0.537763,-0.505861,-0.50441,-0.52439,-0.475569,-0.494099,-0.512306,-0.43126,-0.40258,-0.437061,-0.351665,-0.376961,-0.327496,-0.279965,-0.303166,-0.262241,-0.223249,-0.238072,-0.213743,-0.220188,-0.256763,-0.229372,-0.218899,-0.260469,-0.262885,-0.264174,-0.364877,-0.332008,-0.402258,-0.448662,-0.487815,-0.540019,-0.552264,-0.615425,-0.66634,-0.707266,-0.739168,-0.796045,-0.844221,-0.849699,-0.878057,-0.891269,-0.90432,-0.91576,-0.918983,-0.901259,-0.899809,-0.888691,-0.859689,-0.863234,-0.823436,-0.77961,-0.77236,-0.747547,-0.687286,-0.651839,-0.627831,-0.601568,-0.592868,-0.559837,-0.511339,-0.528096,-0.510372,-0.535507,-0.511822,-0.496515,-0.501833,-0.546947,-0.504894,-0.54018,-0.564188,-0.581589,-0.62767,-0.626543,-0.615908,-0.662634,-0.646039,-0.688414,-0.70791,-0.698243,-0.692764,-0.711133,-0.665696,-0.687447,-0.676652,-0.667307,-0.681486,-0.614297,-0.628637,-0.629765,-0.615425,-0.588356,-0.62332,-0.609141,-0.555165,-0.57885,-0.55742,-0.540019,-0.545658,-0.542758,-0.524712,-0.508761,-0.526162,-0.524712,-0.506022,-0.482981,-0.477342,-0.460424,-0.466063,-0.415309,-0.410475,-0.400808,-0.397907,-0.389046,-0.34377,-0.372933,-0.348765,-0.318312,-0.335552,-0.289954,-0.336197,-0.316218,-0.308645,-0.350054,-0.345864,-0.33668,-0.362782,-0.390657,-0.361332,-0.412892,-0.428038,-0.397263,-0.465096,-0.453656,-0.450112,-0.490715,-0.494743,-0.477986,-0.522295,-0.49571,-0.535507,-0.569021,-0.533574,-0.568699,-0.589806,-0.574822,-0.601891,-0.632343,-0.628637,-0.65635,-0.669885,-0.660056,-0.679391,-0.704204,-0.691314,-0.725634,-0.678263,-0.684064,-0.691959,-0.69502,-0.669885,-0.674719,-0.613653,-0.606563,-0.636854,-0.585778,-0.585134,-0.576755,-0.509083,-0.524068,-0.532607,-0.496515,-0.506505,-0.497804,-0.458812,-0.476697,-0.49716,-0.462518,-0.539374,-0.516173,-0.535185,-0.535024,-0.540502,-0.57031,-0.607046,-0.596412,-0.583684,-0.595929,-0.609624,-0.593673,-0.63766,-0.592223,-0.614458,-0.606402,-0.611558,-0.60318,-0.601891,-0.612847,-0.618809,-0.664407,-0.641688,-0.642172,-0.658767,-0.664568,-0.668435,-0.665535,-0.66489,-0.706621,-0.709199,-0.718544,-0.695826,-0.710649,-0.700982,-0.737396,-0.708877,-0.726923,-0.720317,-0.726117,-0.734818,-0.724184,-0.684547,-0.670368,-0.684547,-0.629765,-0.66779,-0.592706,-0.63476,-0.583684,-0.574016,-0.553231,-0.529385,-0.512306,-0.505538,-0.492004,-0.493615,-0.465096,-0.471219,-0.456718,-0.451562,-0.411925,-0.413537,-0.40693,-0.423687,-0.400808,-0.367294,-0.40403,-0.384051,-0.410314,-0.424815,-0.418209,-0.434966,-0.435127,-0.41112,-0.445117,-0.454301,-0.415792,-0.459296,-0.467674,-0.463485,-0.481531,-0.508116,-0.528579,-0.509405,-0.510694,-0.502638,-0.53583,-0.509244,-0.537763,-0.535346,-0.488137,-0.501671,-0.46848,-0.464291,-0.435933,-0.441733,-0.41692,-0.412248,-0.442539,-0.42401,-0.426265,-0.450917,-0.434322,-0.453979,-0.456879,-0.476375,-0.471863,-0.515528,-0.515689,-0.536958,-0.574016,-0.53583,-0.583845,-0.597379,-0.574338,-0.617197,-0.604469,-0.616714,-0.674557,-0.628959,-0.63186,-0.661829,-0.643783,-0.613975,-0.66924,-0.622353,-0.663279,-0.666179,-0.638466,-0.653289,-0.684064,-0.629604,-0.671979,-0.646683,-0.646844,-0.692281,-0.672785,-0.652806,-0.666985,-0.662957,-0.659412,-0.648294,-0.651517,-0.659573,-0.668757,-0.646844,-0.650228,-0.696954,-0.66779,-0.687286,-0.719833,-0.70791,-0.7208,-0.734657,-0.726439,-0.722411,-0.748836,-0.74223,-0.732723,-0.757214,-0.710649,-0.731756,-0.670852,-0.675041,-0.653772,-0.619131,-0.605274,-0.605596,-0.608658,-0.549686,-0.573533,-0.569666,-0.533413,-0.591417,-0.568538,-0.557581,-0.551459,-0.595284,-0.557581,-0.60044,-0.610913,-0.583039,-0.667951,-0.634115,-0.668757,-0.676652,-0.681164,-0.700015,-0.714194,-0.718222,-0.735462,-0.741263,-0.70646,-0.710649,-0.731756,-0.699532,-0.724828,-0.668274,-0.673268,-0.662312,-0.657801,-0.671496,-0.656028,-0.62042,-0.619131,-0.639271,-0.586423,-0.597701,-0.576916,-0.556292,-0.562737,-0.54308,-0.561287,-0.537763,-0.529062,-0.54018,-0.531318,-0.503444,-0.502316,-0.503283,-0.50151,-0.534863,-0.478308,-0.48862,-0.485398,-0.465096,-0.426749,-0.441733,-0.443022,-0.403063,-0.386468,-0.414503,-0.424493,-0.405803,-0.424171,-0.396135,-0.417565,-0.452529,-0.428199,-0.453495,-0.479597,-0.468963,-0.512306,-0.501349,-0.532607,-0.537763,-0.55307,-0.567571,-0.612686,-0.606724,-0.568538,-0.637982,-0.594318,-0.612847,-0.632343,-0.616553,-0.639916,-0.672946,-0.659573,-0.665857,-0.686158,-0.656028,-0.688253,-0.65909,-0.635727,-0.65909,-0.635888,-0.637016,-0.625254,-0.597701,-0.567249,-0.5861,-0.564026,-0.548558,-0.535507,-0.520523,-0.534541,-0.52149,-0.507955,-0.556776,-0.5173,-0.515045,-0.510372,-0.51005,-0.512306,-0.513111,-0.495388,-0.506666,-0.548397,-0.5086,-0.521651,-0.531157,-0.516173,-0.526646,-0.534541,-0.486848,-0.529062,-0.508277,-0.511017,-0.506183,-0.509728,-0.501188,-0.535507,-0.513917,-0.534541,-0.548397,-0.555487,-0.559032,-0.552103,-0.59754,-0.560965,-0.609463,-0.608335,-0.623965,-0.614942,-0.642333,-0.611075,-0.636532,-0.613491,-0.586906,-0.598346,-0.594801,-0.533896,-0.535991,-0.498932,-0.458168,-0.44125,-0.393718,-0.360043,-0.348442,-0.309934,-0.303005,-0.295755,-0.261596,-0.284798,-0.276098,-0.276259,-0.274325,-0.275775,-0.266914,-0.290115,-0.315734,-0.312028,-0.342481,-0.382923,-0.390496,-0.451723,-0.434966,-0.521167,-0.558709,-0.581911,-0.625415,-0.689381,-0.685031,-0.743357,-0.813285,-0.797334,-0.848732,-0.851955,-0.866778,-0.892558,-0.881602,-0.899809,-0.898681,-0.888047,-0.896909,-0.893847,-0.891753,-0.867745,-0.862911,-0.840999,-0.816024,-0.831814,-0.77816,-0.764465,-0.754153,-0.74223,-0.699209,-0.729823,-0.68922,-0.69212,-0.700337,-0.690992,-0.694053,-0.677297,-0.675363,-0.66779,-0.67488,-0.678747,-0.694698,-0.702432,-0.684225,-0.721122,-0.734012,-0.747547,-0.794111,-0.779771,-0.802812,-0.838098,-0.835843,-0.848894,-0.844382,-0.825692,-0.81683,-0.819569,-0.799912,-0.796367,-0.777999,-0.774938,-0.739007,-0.731112,-0.715805,-0.714194,-0.725312,-0.679552,-0.675524,-0.667468,-0.665696,-0.665696,-0.6549,-0.668757,-0.690509,-0.658284,-0.678908,-0.693731,-0.69067,-0.66924,-0.711455,-0.705332,-0.730306,-0.726278,-0.740941,-0.77961,-0.750447,-0.771232,-0.776871,-0.803457,-0.753992,-0.782027,-0.789117,-0.801845,-0.796851,-0.810224,-0.79395,-0.800718,-0.812318,-0.797173,-0.802329,-0.810224,-0.795078,-0.792339,-0.765754,-0.760598,-0.740941,-0.755603,-0.674396,-0.675202,-0.669079,-0.625092,-0.617358,-0.558065,-0.551459,-0.516173,-0.488943,-0.453818,-0.41837,-0.355371,-0.326368,-0.326207,-0.265947,-0.231305,-0.216482,-0.170078,-0.167178,-0.147682,-0.112395,-0.068892,-0.066153,-0.04279,-0.015076,0.024399,0.034711,0.066614,0.097388,0.150398,0.143631,0.212592,0.243367,0.263024,0.304111,0.343748,0.360183,0.394341,0.422216,0.459919,0.507773,0.531458,0.547571,0.57899,0.597197,0.613793,0.637317,0.644407,0.658586,0.671315,0.667609,0.667609,0.659714,0.643923,0.633611,0.593491,0.58044,0.509062,0.494238,0.404492,0.359216,0.299439,0.254968,0.195513,0.13767,0.052435,0.000714,-0.065992,-0.113201,-0.182646,-0.219865,-0.339742,-0.340386,-0.429488,-0.513111,-0.531963,-0.619936,-0.690348,-0.748674,-0.790244,-0.843738,-0.87419,-0.916566,-0.938479,-0.965708,-0.990683,-0.996967,-1.005023,-1.02613,-1.031447,-1.050782,-1.052554,-1.055616,-1.065766,-1.074951,-1.068667,-1.060288,-1.072534,-1.066572,-1.07624,-1.070439,-1.057066,-1.045143,-1.032736,-1.01469,-1.001478,-0.999222,-0.963453,-0.959908,-0.934289,-0.906415,-0.912054,-0.879024,-0.880635,-0.86275,-0.852438,-0.801845,-0.831653,-0.802168,-0.763176,-0.802168,-0.738685,-0.726601,-0.742068,-0.72789,-0.726278,-0.734334,-0.718867,-0.692442,-0.710005,-0.679552,-0.691153,-0.707427,-0.707588,-0.719189,-0.70356,-0.683097,-0.709844,-0.716289,-0.720961,-0.730306,-0.70066,-0.672141,-0.750769,-0.703238,-0.713872,-0.724184,-0.720156,-0.713066,-0.754636,-0.723861,-0.708071,-0.737396,-0.719028,-0.759953,-0.738524,-0.71935,-0.781544,-0.75947,-0.747063,-0.780094,-0.722411,-0.70936,-0.743357,-0.707105,-0.682614,-0.671335,-0.638143,-0.610752,-0.566604,-0.516334,-0.528257,-0.470091,-0.467996,-0.462196,-0.427715,-0.419659,-0.406125,-0.403063,-0.371644,-0.38969,-0.373094,-0.39968,-0.424654,-0.428843,-0.442217,-0.46139,-0.475569,-0.532124,-0.540663,-0.566282,-0.573049,-0.616231,-0.643944,-0.669885,-0.690831,-0.717255,-0.744646,-0.788794,-0.787667,-0.791211,-0.833265,-0.80829,-0.864039,-0.864684,-0.850183,-0.868873,-0.885308,-0.882407,-0.867745,-0.914954,-0.871451,-0.887563,-0.892075,-0.878702,-0.880474,-0.851633,-0.879185,-0.875157,-0.858883,-0.831331,-0.840032,-0.803457,-0.770748,-0.787183,-0.709521,-0.71645,-0.691475,-0.663601,-0.653934,-0.651033,-0.608658,-0.61897,-0.617842,-0.578044,-0.604791,-0.598024,-0.574499,-0.575627,-0.579172,-0.560804,-0.560321,-0.560804,-0.55307,-0.577722,-0.553876,-0.591256,-0.607852,-0.552425,-0.596412,-0.591901,-0.571921,-0.613169,-0.597379,-0.59464,-0.579978,-0.598668,-0.620259,-0.589162,-0.58755,-0.599957,-0.599796,-0.585617,-0.597862,-0.581589,-0.599474,-0.585617,-0.576916,-0.625898,-0.580783,-0.608658,-0.594318,-0.555003,-0.625092,-0.574499,-0.546786,-0.579655,-0.567893,-0.538891,-0.593512,-0.546303,-0.553876,-0.603502,-0.519073,-0.55742,-0.56886,-0.544208,-0.562576,-0.54453,-0.526968,-0.539213,-0.5115,-0.506183,-0.529224,-0.527935,-0.487976,-0.506505,-0.466869,-0.483787,-0.455912,-0.478792,-0.422398,-0.422721,-0.437222,-0.409186,-0.392752,-0.376317,-0.355693,-0.336036,-0.342159,-0.344092,-0.35102,-0.340386,-0.317829,-0.339903,-0.314606,-0.305261,-0.342964,-0.303811,-0.292049,-0.293338,-0.285604,-0.282059,-0.292532,-0.274809,-0.292371,-0.2993,-0.257891,-0.29076,-0.258696,-0.262241,-0.25644,-0.255474,-0.264174,-0.262402,-0.258696,-0.253862,-0.269008,-0.246934,-0.224699,-0.223249,-0.186996,-0.197952,-0.192474,-0.157349,-0.139787,-0.13737,-0.107723,-0.10869,-0.070181,-0.054874,-0.073726,-0.066797,-0.056324,-0.061641,-0.023777,-0.081137,-0.079043,-0.087743,-0.084038,-0.134308,-0.117229,-0.135758,-0.231466,-0.187479,-0.257891,-0.312512,-0.303811,-0.374544,-0.399519,-0.426749,-0.453656,-0.477181,-0.495388,-0.534702,-0.531963,-0.53583,-0.599313,-0.55452,-0.56596,-0.588034,-0.58175,-0.594318,-0.578689,-0.569666,-0.575305,-0.593834,-0.574661,-0.538891,-0.532768,-0.52294,-0.522618,-0.525518,-0.515206,-0.49716,-0.493776,-0.465741,-0.423526,-0.482498,-0.424976,-0.418209,-0.433033,-0.391946,-0.401452,-0.39114,-0.341997,-0.37535,-0.352309,-0.325724,-0.35521,-0.333619,-0.279965,-0.325885,-0.270297,-0.290921,-0.293982,-0.275937,-0.265463,-0.283026,-0.241295,-0.294305,-0.267236,-0.232594,-0.272875,-0.276903,-0.274003,-0.302683,-0.290921,-0.287376,-0.297205,-0.299783,-0.32234,-0.329107,-0.327657,-0.345864,-0.341836,-0.356499,-0.376156,-0.345542,-0.366327,-0.393235,-0.367133,-0.386951,-0.375511,-0.382762,-0.361977,-0.371,-0.371,-0.381312,-0.369872,-0.363588,-0.369227,-0.375511,-0.353276,-0.33378,-0.345703,-0.357626,-0.347315,-0.344575,-0.306872,-0.345542,-0.325885,-0.316701,-0.336036,-0.345542,-0.350698,-0.339742,-0.353115,-0.302683,-0.32379,-0.340225,-0.320085,-0.327174,-0.332008,-0.350859,-0.350054,-0.363749,-0.302361,-0.333458,-0.335714,-0.318312,-0.354243,-0.323307,-0.353115,-0.356015,-0.363588,-0.357788,-0.357143,-0.330074,-0.370355,-0.359882,-0.358271,-0.355693,-0.366811,-0.379217,-0.369227,-0.349892,-0.387757,-0.377606,-0.360688,-0.396618,-0.35956,-0.377606,-0.368583,-0.400969,-0.366649,-0.355532,-0.383729,-0.371161,-0.363266,-0.377445,-0.361655,-0.325079,-0.326046,-0.317668,-0.283993,-0.243873,-0.251446,-0.235655,-0.186351,-0.176201,-0.170561,-0.157349,-0.146554,-0.113362,-0.137853,-0.099344,-0.08871,-0.100633,-0.075659,-0.100633,-0.089999,-0.087421,-0.12158,-0.119646,-0.124641,-0.152515,-0.183773,-0.196986,-0.235333,-0.227438,-0.278353,-0.315251,-0.361655,-0.380023,-0.423204,-0.435288,-0.462035,-0.506666,-0.496515,-0.527612,-0.564026,-0.51585,-0.551942,-0.553553,-0.544208,-0.556615,-0.550009,-0.519556,-0.510855,-0.511339,-0.45994,-0.501833,-0.485076,-0.464774,-0.488781,-0.455107,-0.444311,-0.437222,-0.427877,-0.410636,-0.441733,-0.445922,-0.456557,-0.452851,-0.431099,-0.459779,-0.472991,-0.472025,-0.476214,-0.492165,-0.48862,-0.492004,-0.544691,-0.515045,-0.564993,-0.557581,-0.540825,-0.556615,-0.57321,-0.55742,-0.589484,-0.579494,-0.576272,-0.60753,-0.566604,-0.575466,-0.587067,-0.568699,-0.549203,-0.562093,-0.564349,-0.531963,-0.555648,-0.560643,-0.519878,-0.545819,-0.541147,-0.499416,-0.524551,-0.505699,-0.495065,-0.50441,-0.475408,-0.484431,-0.488459,-0.47992,-0.462357,-0.471541,-0.456073,-0.494743,-0.464935,-0.436416,-0.443828,-0.446406,-0.451401,-0.478308,-0.474764,-0.440605,-0.450434,-0.464291,-0.468158,-0.450112,-0.471219,-0.46703,-0.443506,-0.465741,-0.458168,-0.441894,-0.464935,-0.456557,-0.475569,-0.457362,-0.453818,-0.466063,-0.452851,-0.452529,-0.453656,-0.459296,-0.451401,-0.440283,-0.418531,-0.44415,-0.438188,-0.415792,-0.442539,-0.434322,-0.434644,-0.421432,-0.449628,-0.427715,-0.453334,-0.453495,-0.430616,-0.471863,-0.45124,-0.442861,-0.47138,-0.427877,-0.440766,-0.463002,-0.436255,-0.456234,-0.466869,-0.440766,-0.48427,-0.49716,-0.4427,-0.499093,-0.482014,-0.49007,-0.508922,-0.48137,-0.482498,-0.513111,-0.480725,-0.503444,-0.525034,-0.475892,-0.514884,-0.497482,-0.49426,-0.532607,-0.496354,-0.501833,-0.496193,-0.516978,-0.499255,-0.493132,-0.518912,-0.486526,-0.508116,-0.477664,-0.489909,-0.503121,-0.5173,-0.516656,-0.504572,-0.490232,-0.524229,-0.511983,-0.497643,-0.483464,-0.497804,-0.497482,-0.495388,-0.499899,-0.529385,-0.483464,-0.504088,-0.500382,-0.50151,-0.527935,-0.50151,-0.508116,-0.52439,-0.523906,-0.506022,-0.518589,-0.51585,-0.518589,-0.544691,-0.513595,-0.535346,-0.548075,-0.529868,-0.559998,-0.528418,-0.538247,-0.559032,-0.533252,-0.539213,-0.574338,-0.521329,-0.539374,-0.556776,-0.543564,-0.562576,-0.55017,-0.550492,-0.561771,-0.578689,-0.548881,-0.543725,-0.554681,-0.561448,-0.559032,-0.574983,-0.56161,-0.574016,-0.540019,-0.555487,-0.54308,-0.574822,-0.535024,-0.545497,-0.56741,-0.554198,-0.54163,-0.542275,-0.560643,-0.546142,-0.491843,-0.546625,-0.517462,-0.541791,-0.525034,-0.52874,-0.52584,-0.548075,-0.53164,-0.500221,-0.556292,-0.492326,-0.507311,-0.5115,-0.493454,-0.49716,-0.5173,-0.514884,-0.512144,-0.501349,-0.49571,-0.47847,-0.509083,-0.463807,-0.480242,-0.468158,-0.465257,-0.462357,-0.446084,-0.44705,-0.428038,-0.464613,-0.415792,-0.455107,-0.435449,-0.469608,-0.451884,-0.457846,-0.462196,-0.434805,-0.480564,-0.438833,-0.460907,-0.476053,-0.451078,-0.46993,-0.46558,-0.470413,-0.474764,-0.446084,-0.439477,-0.471863,-0.445761,-0.451078,-0.479759,-0.446084,-0.473797,-0.478953,-0.443022,-0.471541,-0.48282,-0.472186,-0.467835,-0.473152,-0.486042,-0.482498,-0.509405,-0.481853,-0.501671,-0.467835,-0.486365,-0.467352,-0.496354,-0.472186,-0.471702,-0.468802,-0.48282,-0.486848,-0.47428,-0.458168,-0.495388,-0.482981,-0.476053,-0.456557,-0.476375,-0.449951,-0.482498,-0.478953,-0.425782,-0.458007,-0.458007,-0.460262,-0.454784,-0.463646,-0.430293,-0.456073,-0.429327,-0.453656,-0.447211,-0.40548,-0.461713,-0.461713,-0.417726,-0.450273,-0.433838,-0.425299,-0.434805,-0.470252,-0.427877,-0.464774,-0.468641,-0.453656,-0.490393,-0.429004,-0.493293,-0.491198,-0.470897,-0.501671,-0.508761,-0.50151,-0.52149,-0.52439,-0.491682,-0.556292,-0.536313,-0.518106,-0.562254,-0.529062,-0.564188,-0.57595,-0.542114,-0.560804,-0.56306,-0.559676,-0.579978,-0.603663,-0.552587,-0.589323,-0.592384,-0.583361,-0.611236,-0.580139,-0.571277,-0.586584,-0.610108,-0.601729,-0.620903,-0.617681,-0.584489,-0.625254,-0.599635,-0.613491,-0.619292,-0.62187,-0.618647,-0.63331,-0.630893,-0.652967,-0.670368,-0.654095,-0.650711,-0.655545,-0.65055,-0.679552,-0.668757,-0.688253,-0.691959,-0.689703,-0.702432,-0.690348,-0.721122,-0.677135,-0.728051,-0.709521,-0.698887,-0.688414,-0.708555,-0.684225,-0.70791,-0.690831,-0.724184,-0.724828,-0.704365,-0.676652,-0.706138,-0.692281,-0.684064,-0.695181,-0.685353,-0.668918,-0.708555,-0.689864,-0.667629,-0.697598,-0.690509,-0.655061,-0.692764,-0.669563,-0.692764,-0.676008,-0.719672,-0.691475,-0.697115,-0.701304,-0.727728,-0.686642,-0.682614,-0.721767,-0.707266,-0.719833,-0.726923,-0.723861,-0.689059,-0.709844,-0.708877,-0.676491,-0.715322,-0.685997,-0.701787,-0.743357,-0.708716,-0.700498,-0.721928,-0.725956,-0.686642,-0.705654,-0.715644,-0.692764,-0.734496,-0.678102,-0.706943,-0.70791,-0.701626,-0.700337,-0.730306,-0.68213,-0.733851,-0.719028,-0.725312,-0.755281,-0.730951,-0.727406,-0.748836,-0.728051,-0.746258,-0.744646,-0.732079,-0.747386,-0.772521,-0.74658,-0.755603,-0.765754,-0.724989,-0.779449,-0.747869,-0.74368,-0.761726,-0.745935,-0.748997,-0.754314,-0.741102,-0.728695,-0.732723,-0.72515,-0.684708,-0.708716,-0.668274,-0.706943,-0.652,-0.657156,-0.647811,-0.630087,-0.621709,-0.592384,-0.621709,-0.567893,-0.569343,-0.56161,-0.539213,-0.523262,-0.513272,-0.488459,-0.457201,-0.427393,-0.414503,-0.351987,-0.353437,-0.304617,-0.293821,-0.24065,-0.238072,-0.190541,-0.149937,-0.100956,-0.053585,-0.060675,0.052918,0.056624,0.125263,0.145242,0.192613,0.205664,0.309589,0.321029,0.367272,0.459274,0.456696,0.525174,0.542737,0.571095,0.600259,0.61476,0.625716,0.64344,0.645696,0.653591,0.66068,0.639895,0.633934,0.61766,0.573512,0.544187,0.517924,0.434139,0.423988,0.356477,0.304917,0.241111,0.167155,0.102544,0.033422,-0.067281,-0.122224,-0.179745,-0.236944,-0.302844,-0.375028,-0.45269,-0.508439,-0.579172,-0.634276,-0.665857,-0.742391,-0.780899,-0.818763,-0.841804,-0.871129,-0.894814,-0.90287,-0.927844,-0.949113,-0.956041,-0.969898,-0.98021,-0.98601,-1.00035,-1.009373,-1.010662,-1.011468,-1.011468,-1.01759,-1.019685,-1.008245,-1.007923,-1.018557,-1.002928,-0.991327,-1.002123,-0.970703,-0.974731,-0.976987,-0.962003,-0.95153,-0.95588,-0.917855,-0.960714,-0.939929,-0.904481,-0.938962,-0.905448,-0.911571,-0.930261,-0.893525,-0.910926,-0.921561,-0.895942,-0.900937,-0.913182,-0.880474,-0.886435,-0.924783,-0.861622,-0.874996,-0.875157,-0.880474,-0.890141,-0.899003,-0.8642,-0.890947,-0.880957,-0.887886,-0.873384,-0.86275,-0.860978,-0.896747,-0.848571,-0.883858,-0.865328,-0.861461,-0.855983,-0.873384,-0.842449,-0.839226,-0.864039,-0.84986,-0.864684,-0.852599,-0.839226,-0.843738,-0.853405,-0.838582,-0.823919,-0.842771,-0.815058,-0.850183,-0.85695,-0.82682,-0.84551,-0.852761,-0.83971,-0.848732,-0.862911,-0.824081,-0.866939,-0.830525,-0.799751,-0.868712,-0.820697,-0.797495,-0.844866,-0.82537,-0.82827,-0.80684,-0.788794,-0.817313,-0.816185,-0.802168,-0.810385,-0.822953,-0.786378,-0.803134,-0.782027,-0.77236,-0.824403,-0.818602,-0.786539,-0.800395,-0.779127,-0.820052,-0.840032,-0.803134,-0.813446,-0.817152,-0.80684,-0.830364,-0.827464,-0.831976,-0.803457,-0.833265,-0.797495,-0.815863,-0.833265,-0.788955,-0.833426,-0.825531,-0.823436,-0.818119,-0.817152,-0.824242,-0.806679,-0.808613,-0.836004,-0.801201,-0.787022,-0.791856,-0.799106,-0.784766,-0.780738,-0.766882,-0.796206,-0.755603,-0.770748,-0.748191,-0.73514,-0.765754,-0.728856,-0.728373,-0.765593,-0.757697,-0.73659,-0.737879,-0.729501,-0.734657,-0.737557,-0.735946,-0.728373,-0.694053,-0.691959,-0.729984,-0.69502,-0.690348,-0.682453,-0.698243,-0.663923,-0.697276,-0.661023,-0.667629,-0.682453,-0.640721,-0.675363,-0.676652,-0.697437,-0.690348,-0.688253,-0.671013,-0.663601,-0.67069,-0.680519,-0.675846,-0.686964,-0.666662,-0.683742,-0.679552,-0.690992,-0.666662,-0.695665,-0.647328,-0.674235,-0.68922,-0.660217,-0.694215,-0.657156,-0.66199,-0.671818,-0.659895,-0.664568,-0.659895,-0.653128,-0.66344,-0.637016,-0.642816,-0.632987,-0.653128,-0.618809,-0.622837,-0.656189,-0.645072,-0.640883,-0.642977,-0.612202,-0.641688,-0.617681,-0.642977,-0.661345,-0.635565,-0.61188,-0.608335,-0.627509,-0.623965,-0.634921,-0.584973,-0.57885,-0.625415,-0.581267,-0.576594,-0.619614,-0.566604,-0.587228,-0.554037,-0.535185,-0.548558,-0.558065,-0.537763,-0.534057,-0.563865,-0.501349,-0.568538,-0.563382,-0.5144,-0.547914,-0.551942,-0.550814,-0.536635,-0.55162,-0.565799,-0.569182,-0.567249,-0.567571,-0.559676,-0.548881,-0.545819,-0.547431,-0.523584,-0.521812,-0.554842,-0.52584,-0.524712,-0.547108,-0.5115,-0.501671,-0.518751,-0.5086,-0.523584,-0.490232,-0.47992,-0.508116,-0.490393,-0.457201,-0.505216,-0.463646,-0.46284,-0.483142,-0.482659,-0.4427,-0.49007,-0.493776,-0.483948,-0.505538,-0.491682,-0.466869,-0.480242,-0.474925,-0.433033,-0.466707,-0.452851,-0.467191,-0.465418,-0.46558,-0.428843,-0.446728,-0.440928,-0.434644,-0.459457,-0.42981,-0.446567,-0.471541,-0.429166,-0.451723,-0.447211,-0.427715,-0.433999,-0.449145,-0.427393,-0.456073,-0.464774,-0.446245,-0.462518,-0.410636,-0.455912,-0.482175,-0.468802,-0.460585,-0.48282,-0.467674,-0.479114,-0.479759,-0.496999,-0.454945,-0.510855,-0.484592,-0.495388,-0.49861,-0.48282,-0.492971,-0.508922,-0.495871,-0.504088,-0.510372,-0.497321,-0.546625,-0.51585,-0.496999,-0.513756,-0.494904,-0.502477,-0.517784,-0.522456,-0.493454,-0.517139,-0.477019,-0.465418,-0.545819,-0.491521,-0.489104,-0.505699,-0.483303,-0.505538,-0.496838,-0.470736,-0.498288,-0.487815,-0.481692,-0.503444,-0.476858,-0.467835,-0.523262,-0.45994,-0.509083,-0.49716,-0.495388,-0.496193,-0.510694,-0.540019,-0.517945,-0.501027,-0.514884,-0.531963,-0.514239,-0.546625,-0.5115,-0.517139,-0.533574,-0.534218,-0.508761,-0.526968,-0.529707,-0.540825,-0.538085,-0.536313,-0.517462,-0.559193,-0.529868,-0.554198,-0.55597,-0.577883,-0.54163,-0.562254,-0.555487,-0.564349,-0.558226,-0.560159,-0.5803,-0.573049,-0.561448,-0.592706,-0.561448,-0.580622,-0.59029,-0.575144,-0.627831,-0.557259,-0.559837,-0.598346,-0.590773,-0.5832,-0.581428,-0.571921,-0.578366,-0.577561,-0.571438,-0.567088,-0.598668,-0.556292,-0.580783,-0.565154,-0.56596,-0.581106,-0.561771,-0.562415,-0.571277,-0.573372,-0.550814,-0.587228,-0.561932,-0.538085,-0.582395,-0.552264,-0.567732,-0.578528,-0.567088,-0.582233,-0.603824,-0.574338,-0.572566,-0.619292,-0.598829,-0.614136,-0.593512,-0.56886,-0.608658,-0.619614,-0.616553,-0.632343,-0.633471,-0.63331,-0.62477,-0.6491,-0.61897,-0.671979,-0.637177,-0.641205,-0.647972,-0.648294,-0.637821,-0.704849,-0.631054,-0.6549,-0.672302,-0.649261,-0.634115,-0.651517,-0.643783,-0.666985,-0.656028,-0.657639,-0.649583,-0.662634,-0.608335,-0.613491,-0.66779,-0.609947,-0.663279,-0.603824,-0.600924,-0.632182,-0.641527,-0.615425,-0.622514,-0.632665,-0.624931,-0.663601,-0.635243,-0.638305,-0.644427,-0.625092,-0.674396,-0.642816,-0.618809,-0.647811,-0.628476,-0.612686,-0.651194,-0.66054,-0.610108,-0.643622,-0.642816,-0.635243,-0.633793,-0.675202,-0.647811,-0.630409,-0.631537,-0.645555,-0.649583,-0.656512,-0.637982,-0.659412,-0.636854,-0.654417,-0.651678,-0.647972,-0.631054,-0.678102,-0.642333,-0.647972,-0.686642,-0.623481,-0.643299,-0.667468,-0.633149,-0.603018,-0.640077,-0.633632,-0.587712,-0.637982,-0.596896,-0.620742,-0.643138,-0.571921,-0.608335,-0.59029,-0.584489,-0.601729,-0.5832,-0.572405,-0.617358,-0.567571,-0.554037,-0.600118,-0.561126,-0.549042,-0.616392,-0.576433,-0.581106,-0.61752,-0.563221,-0.604952,-0.598829,-0.557904,-0.568377,-0.607691,-0.5832,-0.604952,-0.583039,-0.584811,-0.604791,-0.582395,-0.57595,-0.616553,-0.572244,-0.577883,-0.597057,-0.56306,-0.571438,-0.590612,-0.553231,-0.551781,-0.5803,-0.569021,-0.541791,-0.567571,-0.552103,-0.576433,-0.573694,-0.556292,-0.560804,-0.60463,-0.552909,-0.59029,-0.582878,-0.551459,-0.565477,-0.573533,-0.533091,-0.575466,-0.577883,-0.536152,-0.584328,-0.569988,-0.572888,-0.570471,-0.550814,-0.559837,-0.573855,-0.544853,-0.579011,-0.582395,-0.536152,-0.594962,-0.59029,-0.555165,-0.567732,-0.582878,-0.555809,-0.602213,-0.574338,-0.569666,-0.592868,-0.570632,-0.56306,-0.596251,-0.570794,-0.57885,-0.574177,-0.595929,-0.597701,-0.62767,-0.560804,-0.57885,-0.615103,-0.553231,-0.575788,-0.601729,-0.580461,-0.597701,-0.593834,-0.579494,-0.595607,-0.567088,-0.572566,-0.583522,-0.550814,-0.578528,-0.585456,-0.560482,-0.590934,-0.562737,-0.572727,-0.574016,-0.579817,-0.573372,-0.567732,-0.567249,-0.533413,-0.584811,-0.56161,-0.553231,-0.566765,-0.584167,-0.568054,-0.559354,-0.56741,-0.545497,-0.55307,-0.531479,-0.516495,-0.577239,-0.543886,-0.535669,-0.544853,-0.57321,-0.527451,-0.555003,-0.54308,-0.536313,-0.598024,-0.562737,-0.564026,-0.5861,-0.567732,-0.569827,-0.581106,-0.564026,-0.591256,-0.605274,-0.582878,-0.589001,-0.626059,-0.587712,-0.616069,-0.602535,-0.602213,-0.647328,-0.565154,-0.632182,-0.61897,-0.607852,-0.584973,-0.63911,-0.585778,-0.604146,-0.588195,-0.574822,-0.602857,-0.594962,-0.576916,-0.572566,-0.5861,-0.566443,-0.555165,-0.563704,-0.534863,-0.579172,-0.532446,-0.54308,-0.551459,-0.513595,-0.548236,-0.547753,-0.52149,-0.530351,-0.529868,-0.562415,-0.519073,-0.552748,-0.539052,-0.550009,-0.55742,-0.557259,-0.54018,-0.537924,-0.54598,-0.550653,-0.569827,-0.521167,-0.539052,-0.54872,-0.556615,-0.539858,-0.576433,-0.546625,-0.55887,-0.587873,-0.56306,-0.5774,-0.615425,-0.582556,-0.61897,-0.619614,-0.629282,-0.641849,-0.638627,-0.676008,-0.656673,-0.700337,-0.663279,-0.675685,-0.70211,-0.696793,-0.73514,-0.701626,-0.704849,-0.72934,-0.711777,-0.709682,-0.697437,-0.70646,-0.70356,-0.704043,-0.669885,-0.685031,-0.683903,-0.682936,-0.698082,-0.697115,-0.65909,-0.647972,-0.666501,-0.651517,-0.664568,-0.642655,-0.631537,-0.640077,-0.621548,-0.618325,-0.622676,-0.605274,-0.610108,-0.613814,-0.620259,-0.613008,-0.606563,-0.640721,-0.630248,-0.638466,-0.648133,-0.641205,-0.645716,-0.655545,-0.654417,-0.682291,-0.672463,-0.685836,-0.698565,-0.657156,-0.70791,-0.694376,-0.698404,-0.681808,-0.703238,-0.685353,-0.698404,-0.693087,-0.692442,-0.698565,-0.689542,-0.693409,-0.716933,-0.703238,-0.724184,-0.728534,-0.722895,-0.719994,-0.742552,-0.729984,-0.755119,-0.768009,-0.744485,-0.761242,-0.766882,-0.733529,-0.778482,-0.776549,-0.776549,-0.788955,-0.794111,-0.783638,-0.785572,-0.790728,-0.779127,-0.792178,-0.785733,-0.802329,-0.780577,-0.793306,-0.787989,-0.797334,-0.782188,-0.768332,-0.807485,-0.787022,-0.763498,-0.7896,-0.777516,-0.779288,-0.786378,-0.764787,-0.759953,-0.788472,-0.769137,-0.761081,-0.76672,-0.730629,-0.769137,-0.70936,-0.740135,-0.759631,-0.760598,-0.711938,-0.739652,-0.710488,-0.70501,-0.736107,-0.703721,-0.704688,-0.70501,-0.675524,-0.719994,-0.698243,-0.712905,-0.697759,-0.677941,-0.716772,-0.688897,-0.7237,-0.722411,-0.719511,-0.723056,-0.741746,-0.736912,-0.735301,-0.741907,-0.736751,-0.760598,-0.704527,-0.751252,-0.755119,-0.726278,-0.748191,-0.740618,-0.752058,-0.713549,-0.732723,-0.716611,-0.732401,-0.737235,-0.731434,-0.729017,-0.714838,-0.75238,-0.717578,-0.719028,-0.716611,-0.690831,-0.672946,-0.642816,-0.669885,-0.608335,-0.611719,-0.602374,-0.539858,-0.574499,-0.535991,-0.50715,-0.535669,-0.494099,-0.480242,-0.509083,-0.425299,-0.476053,-0.468641,-0.425137,-0.445117,-0.471219,-0.448178,-0.480564,-0.497482,-0.501994,-0.527612,-0.533091,-0.526807,-0.56451,-0.590612,-0.583522,-0.63186,-0.630409,-0.631215,-0.662151,-0.656512,-0.66489,-0.685997,-0.667146,-0.650711,-0.693892,-0.666501,-0.661184,-0.661345,-0.651194,-0.654256,-0.628959,-0.649905,-0.598829,-0.582233,-0.586745,-0.543886,-0.564188,-0.540825,-0.523584,-0.500382,-0.497482,-0.473797,-0.46139,-0.432066,-0.425621,-0.409831,-0.343609,-0.34957,-0.328302,-0.26063,-0.253862,-0.242745,-0.178617,-0.161377,-0.144459,-0.070181,-0.078559,-0.01991,0.009253,0.032133,0.082565,0.142342,0.194224,0.272531,0.283004,0.317323,0.415609,0.434139,0.480382,0.530653,0.551921,0.573512,0.602514,0.608959,0.626522,0.640862,0.632161,0.641668,0.634739,0.621366,0.597519,0.557722,0.54467,0.492949,0.466042,0.41996,0.350354,0.297505,0.22226,0.137186,0.094488,-0.003314,-0.056324,-0.136403,-0.227599,-0.272875,-0.335391,-0.42836,-0.467513,-0.521329,-0.608335,-0.640721,-0.684708,-0.750447,-0.762209,-0.803134,-0.853566,-0.859367,-0.889336,-0.894814,-0.899003,-0.918983,-0.920433,-0.916405,-0.923011,-0.933161,-0.935256,-0.948307,-0.91576,-0.914632,-0.922044,-0.892075,-0.894653,-0.886597,-0.845832,-0.835037,-0.822953,-0.813769,-0.77236,-0.787344,-0.731918,-0.727728,-0.70646,-0.700337,-0.662151,-0.622353,-0.609463,-0.608497,-0.580944,-0.573855,-0.552103,-0.549525,-0.530513,-0.534218,-0.521812,-0.529868,-0.5086,-0.506505,-0.512144,-0.478308,-0.488459,-0.441572,-0.446889,-0.414503,-0.431744,-0.376961,-0.364877,-0.376961,-0.371805,-0.366005,-0.344092,-0.37245,-0.332813,-0.360688,-0.384212,-0.33668,-0.41112,-0.399841,-0.388079,-0.442861,-0.461874,-0.468158,-0.531802,-0.538085,-0.546142,-0.620742,-0.58465,-0.632182,-0.641044,-0.681002,-0.713388,-0.709521,-0.677458,-0.719994,-0.695987,-0.676491,-0.705493,-0.684547,-0.626704,-0.662151,-0.622514,-0.592223,-0.589484,-0.578528,-0.567249,-0.560321,-0.521167,-0.546142,-0.555487,-0.554037,-0.554681,-0.599796,-0.551942,-0.56161,-0.562415,-0.605435,-0.581267,-0.607852,-0.611397,-0.622837,-0.678424,-0.645394,-0.708877,-0.699371,-0.748836,-0.753347,-0.761726,-0.80104,-0.777516,-0.807163,-0.809579,-0.811352,-0.809579,-0.793789,-0.787344,-0.744485,-0.723056,-0.730629,-0.687931,-0.664084,-0.700015,-0.627187,-0.589806,-0.629604,-0.573855,-0.609624,-0.58755,-0.573855,-0.580461,-0.600763,-0.579655,-0.602535,-0.577722,-0.608013,-0.642977,-0.639916,-0.64475,-0.688575,-0.656834,-0.709038,-0.695826,-0.700821,-0.708232,-0.718867,-0.693892,-0.691637,-0.710327,-0.681969,-0.681164,-0.691314,-0.676169,-0.672785,-0.644911,-0.672463,-0.654578,-0.623481,-0.636049,-0.59754,-0.612525,-0.5803,-0.614619,-0.566604,-0.581589,-0.604952,-0.599151,-0.592223,-0.609786,-0.601085,-0.621225,-0.636693,-0.608819,-0.590773,-0.643622,-0.612202,-0.613653,-0.627993,-0.601407,-0.61333,-0.652806,-0.612686,-0.628798,-0.685353,-0.624448,-0.659734,-0.639271,-0.630571,-0.659251,-0.647005,-0.653289,-0.680841,-0.660056,-0.652322,-0.696631,-0.687447,-0.683258,-0.661668,-0.659573,-0.678586,-0.677458,-0.647972,-0.643944,-0.619131,-0.589323,-0.577077,-0.561771,-0.513111,-0.523745,-0.494904,-0.494099,-0.467513,-0.437061,-0.439477,-0.42836,-0.406608,-0.398552,-0.410959,-0.415631,-0.379378,-0.437222,-0.422237,-0.421593,-0.444795,-0.492648,-0.474119,-0.501994,-0.470736,-0.485237,-0.553231,-0.496838,-0.512789,-0.539536,-0.541308,-0.549847,-0.573049,-0.549525,-0.555809,-0.593351,-0.613653,-0.608819,-0.611075,-0.611719,-0.633954,-0.604469,-0.613814,-0.614297,-0.596251,-0.584489,-0.559354,-0.519717,-0.484109,-0.511822,-0.445922,-0.446889,-0.413859,-0.377928,-0.38534,-0.41112,-0.364071,-0.374706,-0.327657,-0.357143,-0.343125,-0.366327,-0.30655,-0.344898,-0.300911,-0.342159,-0.371322,-0.345703,-0.322179,-0.359721,-0.355854,-0.352632,-0.397907,-0.374222,-0.409831,-0.454945,-0.407253,-0.491037,-0.451401,-0.482498,-0.488137,-0.5086,-0.53873,-0.539374,-0.582717,-0.56596,-0.590934,-0.572566,-0.584973,-0.598507,-0.607852,-0.609463,-0.576594,-0.598507,-0.584328,-0.604307,-0.579333,-0.565477,-0.559515,-0.517139,-0.512306,-0.477664,-0.48137,-0.430293,-0.432388,-0.412731,-0.384534,-0.380667,-0.324596,-0.351665,-0.355854,-0.330074,-0.323307,-0.351665,-0.328302,-0.317184,-0.322985,-0.34667,-0.347798,-0.364555,-0.333136,-0.370516,-0.359077,-0.38389,-0.371805,-0.377122,-0.379056,-0.38389,-0.378734,-0.364716,-0.394524,-0.338775,-0.365683,-0.374383,-0.355048,-0.386468,-0.385018,-0.378895,-0.366005,-0.400485,-0.387757,-0.392429,-0.416276,-0.419498,-0.444472,-0.440444,-0.477825,-0.496032,-0.504733,-0.543886,-0.543725,-0.569343,-0.580139,-0.625415,-0.623803,-0.596412,-0.631054,-0.63911,-0.626381,-0.661668,-0.643461,-0.65345,-0.661023,-0.659734,-0.642333,-0.684064,-0.605435,-0.64201,-0.60318,-0.594962,-0.576755,-0.580783,-0.563543,-0.560965,-0.526001,-0.519073,-0.529385,-0.451884,-0.480564,-0.484592,-0.44125,-0.470736,-0.460101,-0.44705,-0.440605,-0.427071,-0.393718,-0.45994,-0.438994,-0.397746,-0.441894,-0.408058,-0.442378,-0.436094,-0.407253,-0.403869,-0.417242,-0.404514,-0.400324,-0.419659,-0.400808,-0.419015,-0.413537,-0.397263,-0.414342,-0.387596,-0.409992,-0.396135,-0.385823,-0.392752,-0.427393,-0.429327,-0.404836,-0.471058,-0.443183,-0.463002,-0.480564,-0.471702,-0.473797,-0.490554,-0.513272,-0.483303,-0.521651,-0.522295,-0.512467,-0.528901,-0.533574,-0.5115,-0.507794,-0.506022,-0.49281,-0.504088,-0.473314,-0.477664,-0.480886,-0.438027,-0.462518,-0.480403,-0.431421,-0.452045,-0.456557,-0.465257,-0.480886,-0.493615,-0.501994,-0.47847,-0.513433,-0.488781,-0.518751,-0.520201,-0.536796,-0.551459,-0.569182,-0.588678,-0.582878,-0.575305,-0.592868,-0.643944,-0.62767,-0.62912,-0.682936,-0.654739,-0.698404,-0.665051,-0.680036,-0.66634,-0.675363,-0.658284,-0.673107,-0.67488,-0.657156,-0.691153,-0.645072,-0.685031,-0.671335,-0.653289,-0.657156,-0.664729,-0.65909,-0.672785,-0.675524,-0.685192,-0.664407,-0.684547,-0.653128,-0.643622,-0.635727,-0.624448,-0.564349,-0.570471,-0.534218,-0.501833,-0.539213,-0.459618,-0.465096,-0.43126,-0.379378,-0.393879,-0.373578,-0.323629,-0.326852,-0.309773,-0.259985,-0.29076,-0.291243,-0.244356,-0.295433,-0.246773,-0.265302,-0.292532,-0.272553,-0.26933,-0.315573,-0.329591,-0.35666,-0.403547,-0.409025,-0.452367,-0.48717,-0.457201,-0.525195,-0.559998,-0.586423,-0.619936,-0.653772,-0.625576,-0.710649,-0.69647,-0.695181,-0.746741,-0.740941,-0.759953,-0.768654,-0.774615,-0.751252,-0.775743,-0.766882,-0.757859,-0.780577,-0.75383,-0.773649,-0.775582,-0.740941,-0.754314,-0.743841,-0.688253,-0.721928,-0.701304,-0.669079,-0.651839,-0.61333,-0.587228,-0.591095,-0.536313,-0.532124,-0.499738,-0.474119,-0.467352,-0.423204,-0.389046,-0.401936,-0.411764,-0.359238,-0.361332,-0.353115,-0.366166,-0.356176,-0.349248,-0.389529,-0.346348,-0.361332,-0.364233,-0.34522,-0.385984,-0.378895,-0.407092,-0.398874,-0.426426,-0.427393,-0.463485,-0.447695,-0.491198,-0.498449,-0.480725,-0.543241,-0.526807,-0.515528,-0.55017,-0.528257,-0.550975,-0.560159,-0.559354,-0.559837,-0.59319,-0.558387,-0.573049,-0.576433,-0.526646,-0.583039,-0.539697,-0.535346,-0.555003,-0.570955,-0.584167,-0.586584,-0.570632,-0.606724,-0.632504,-0.583039,-0.611397,-0.624287,-0.599313,-0.648133,-0.667307,-0.641849,-0.63766,-0.678747,-0.643783,-0.669079,-0.682936,-0.658284,-0.661023,-0.623642,-0.617681,-0.612525,-0.57176,-0.547108,-0.560965,-0.518428,-0.477019,-0.481853,-0.437866,-0.396296,-0.366488,-0.38534,-0.315734,-0.307839,-0.306067,-0.281254,-0.289632,-0.295916,-0.27787,-0.338614,-0.316379,-0.361655,-0.34812,-0.388723,-0.407092,-0.453656,-0.466063,-0.49861,-0.510855,-0.514722,-0.584006,-0.596251,-0.581428,-0.662312,-0.671013,-0.660701,-0.702432,-0.715805,-0.699532,-0.781705,-0.742068,-0.751252,-0.77671,-0.74368,-0.753186,-0.76382,-0.715322,-0.719028,-0.718867,-0.65909,-0.661184,-0.639755,-0.583684,-0.563704,-0.584006,-0.501671,-0.53164,-0.481692,-0.460585,-0.473958,-0.425621,-0.423043,-0.404514,-0.36246,-0.364877,-0.389529,-0.378411,-0.374061,-0.366166,-0.381634,-0.399196,-0.427554,-0.429971,-0.435611,-0.475086,-0.493454,-0.481209,-0.519717,-0.527773,-0.538085,-0.536152,-0.594318,-0.587873,-0.599957,-0.637016,-0.648778,-0.662312,-0.656834,-0.677619,-0.70356,-0.684386,-0.715644,-0.722734,-0.709199,-0.694698,-0.720961,-0.696309,-0.709682,-0.714194,-0.673107,-0.727728,-0.697759,-0.680519,-0.715322,-0.708716,-0.707266,-0.705171,-0.693409,-0.700982,-0.695342,-0.6462,-0.648778,-0.645555,-0.570632,-0.579978,-0.573049,-0.515689,-0.492487,-0.519234,-0.451884,-0.478308,-0.464291,-0.419015,-0.464452,-0.433355,-0.421109,-0.448662,-0.432871,-0.455107,-0.469769,-0.443183,-0.465096,-0.477503,-0.448178,-0.485076,-0.512306,-0.454301,-0.519234,-0.513272,-0.551298,-0.554198,-0.567249,-0.596573,-0.61478,-0.622998,-0.667951,-0.670368,-0.697437,-0.686642,-0.751575,-0.74223,-0.74948,-0.788955,-0.767526,-0.808451,-0.811352,-0.81393,-0.83971,-0.846155,-0.8555,-0.856305,-0.868067,-0.871934,-0.884663,-0.871773,-0.872418,-0.869517,-0.859044,-0.841482,-0.852438,-0.830687,-0.810063,-0.820858,-0.820052,-0.789278,-0.7925,-0.782833,-0.756731,-0.765593,-0.77091,-0.757375,-0.753347,-0.761887,-0.732079,-0.76237,-0.738846,-0.744646,-0.752864,-0.770426,-0.724023,-0.767043,-0.793789,-0.781866,-0.80829,-0.808774,-0.798462,-0.831814,-0.835198,-0.846155,-0.846316,-0.855016,-0.856789,-0.866778,-0.854372,-0.863395,-0.880796,-0.864362,-0.892236,-0.880957,-0.872257,-0.871934,-0.880474,-0.87274,-0.863073,-0.831976,-0.820697,-0.840354,-0.794917,-0.818925,-0.846155,-0.797495,-0.790889,-0.784444,-0.798623,-0.783316,-0.78815,-0.788794,-0.786378,-0.807163,-0.790406,-0.799429,-0.793628,-0.791533,-0.790889,-0.802329,-0.805874,-0.800395,-0.791372,-0.80684,-0.840193,-0.798623,-0.814574,-0.816508,-0.752864,-0.753992,-0.736268,-0.675524,-0.678747,-0.671174,-0.602213,-0.622031,-0.615425,-0.55017,-0.5832,-0.572244,-0.565315,-0.547753,-0.541469,-0.548236,-0.579172,-0.578044,-0.589806,-0.648455,-0.644588,-0.661668,-0.706782,-0.719511,-0.736107,-0.777677,-0.792984,-0.821341,-0.848894,-0.869356,-0.888047,-0.913021,-0.906415,-0.936384,-0.943312,-0.962969,-0.981821,-0.979726,-0.981338,-0.99036,-0.995033,-0.996,-1.000995,-0.994066,-0.978276,-0.969092,-0.94879,-0.949757,-0.921399,-0.905932,-0.881924,-0.872901,-0.850988,-0.815541,-0.840676,-0.780738,-0.784766,-0.774615,-0.721606,-0.770748,-0.737235,-0.720317,-0.708555,-0.729662,-0.703721,-0.684225,-0.715483,-0.639432,-0.652,-0.638949,-0.630571,-0.652483,-0.595446,-0.570794,-0.553392,-0.544208,-0.530513,-0.522295,-0.431582,-0.438672,-0.413859,-0.370194,-0.347959,-0.310739,-0.265302,-0.224377,-0.161861,-0.096766,-0.05568,-0.030867,0.055335,0.133641,0.168283,0.228866,0.313134,0.375167,0.433655,0.490049,0.521468,0.560138,0.590591,0.60912,0.637478,0.642796,0.654719,0.665675,0.666159,0.654074,0.646824,0.616854,0.591236,0.568195,0.464269,0.476354,0.371139,0.330536,0.248362,0.161838,0.063391,0.001519,-0.119163,-0.198597,-0.279642,-0.389851,-0.453818,-0.532929,-0.663118,-0.689542,-0.777677,-0.846799,-0.932034,-0.952174,-1.006795,-1.038214,-1.040631,-1.067861,-1.060449,-1.094124,-1.080751,-1.109431,-1.104114,-1.103953,-1.127155,-1.133922,-1.150357,-1.131505,-1.124093,-1.141172,-1.130055,-1.138111,-1.151001,-1.151968,-1.155996,-1.14649,-1.144556,-1.138272,-1.145684,-1.156479,-1.157607,-1.146006,-1.14375,-1.134083,-1.129249,-1.114748,-1.107175,-1.08639,-1.078173,-1.063672,-1.04337,-1.046915,-1.037731,-0.989394,-1.001317,-0.997611,-0.976182,-0.98021,-0.951046,-0.996805,-0.984882,-0.956041,-0.953463,-0.976665,-0.991488,-0.958297,-1.009212,-0.987299,-0.959747,-0.974893,-0.98891,-0.982304,-1.016301,-1.000189,-0.989716,-1.001156,-0.988105,-1.010984,-0.999061,-1.004056,-0.98891,-0.996483,-1.009856,-0.996644,-1.002445,-0.978276,-0.994066,-0.996,-0.971992,-0.958619,-0.978276,-0.965708,-0.947018,-0.956202,-0.930745,-0.939768,-0.939768,-0.894814,-0.906737,-0.902226,-0.866617,-0.858561,-0.85695,-0.850183,-0.813285,-0.809096,-0.774132,-0.801201,-0.753186,-0.73079,-0.77961,-0.720478,-0.749641,-0.761887,-0.734334,-0.75093,-0.785572,-0.782672,-0.819569,-0.788633,-0.795078,-0.852761,-0.810868,-0.844382,-0.870806,-0.870323,-0.921077,-0.926555,-0.884985,-0.930745,-0.9272,-0.939606,-0.938962,-0.970381,-0.928005,-0.949113,-0.982949,-0.96023,-0.953785,-0.971831,-0.954752,-0.964258,-0.951368,-0.946535,-0.957975,-0.939123,-0.932678,-0.940412,-0.931067,-0.923816,-0.926233,-0.928811,-0.895942,-0.92575,-0.903837,-0.903031,-0.917694,-0.891269,-0.938801,-0.896586,-0.925105,-0.903837,-0.906254,-0.900937,-0.908509,-0.916888,-0.926233,-0.899003,-0.930745,-0.908671,-0.910926,-0.923494,-0.942184,-0.906737,-0.942668,-0.927844,-0.937834,-0.959586,-0.926233,-0.926072,-0.961519,-0.926716,-0.942829,-0.936384,-0.920594,-0.920594,-0.922527,-0.921399,-0.958941,-0.916888,-0.938801,-0.941379,-0.907865,-0.939123,-0.918016,-0.928328,-0.952819,-0.930422,-0.922688,-0.940895,-0.935256,-0.916243,-0.92575,-0.908993,-0.890947,-0.935739,-0.861945,-0.910604,-0.886597,-0.894169,-0.88708,-0.862589,-0.898359,-0.87274,-0.838743,-0.854533,-0.844704,-0.823436,-0.827947,-0.834392,-0.810063,-0.803134,-0.80829,-0.776066,-0.819891,-0.779449,-0.790889,-0.755603,-0.787022,-0.774938,-0.776871,-0.778321,-0.76527,-0.739007,-0.76092,-0.770265,-0.759309,-0.774132,-0.756408,-0.758503,-0.784927,-0.742713,-0.755925,-0.758664,-0.74368,-0.743841,-0.791533,-0.734496,-0.741585,-0.779127,-0.71081,-0.764304,-0.771715,-0.738363,-0.770748,-0.726117,-0.719511,-0.743035,-0.719189,-0.725473,-0.754314,-0.711938,-0.696309,-0.732401,-0.712583,-0.713066,-0.71226,-0.721928,-0.689542,-0.683419,-0.700821,-0.694698,-0.722895,-0.688897,-0.69792,-0.705977,-0.705816,-0.716611,-0.695504,-0.693087,-0.664729,-0.680358,-0.665696,-0.643138,-0.673591,-0.625737,-0.643783,-0.626543,-0.598829,-0.601568,-0.618164,-0.611236,-0.624609,-0.601729,-0.562415,-0.592062,-0.618325,-0.577077,-0.610591,-0.603985,-0.622192,-0.635565,-0.64475,-0.638143,-0.699854,-0.666018,-0.691475,-0.734657,-0.686158,-0.747869,-0.771232,-0.746902,-0.765754,-0.774132,-0.758342,-0.792822,-0.783477,-0.767365,-0.79959,-0.776871,-0.788955,-0.809257,-0.775582,-0.801684,-0.853566,-0.818925,-0.829559,-0.861622,-0.807001,-0.826981,-0.876285,-0.862428,-0.840676,-0.87129,-0.871773,-0.894331,-0.886274,-0.880796,-0.898681,-0.861945,-0.898681,-0.894653,-0.90996,-0.91721,-0.94009,-0.919949,-0.932195,-0.927039,-0.933161,-0.910604,-0.9301,-0.915921,-0.887724,-0.913021,-0.897231,-0.887563,-0.88128,-0.871773,-0.856144,-0.845349,-0.824242,-0.828753,-0.824242,-0.790728,-0.799912,-0.792822,-0.774293,-0.773488,-0.758986,-0.742552,-0.740618,-0.705977,-0.674557,-0.695665,-0.642333,-0.637821,-0.672624,-0.60898,-0.660379,-0.633149,-0.619614,-0.632826,-0.626704,-0.629282,-0.628315,-0.618809,-0.61478,-0.639916,-0.616553,-0.595123,-0.648455,-0.595446,-0.633471,-0.656189,-0.606724,-0.632343,-0.599474,-0.56741,-0.610108,-0.638305,-0.576272,-0.613975,-0.604307,-0.608497,-0.634599,-0.587389,-0.609141,-0.614136,-0.61043,-0.610269,-0.599796,-0.618486,-0.619614,-0.637338,-0.605113,-0.637338,-0.635888,-0.635243,-0.635243,-0.647328,-0.643138,-0.629282,-0.663601,-0.661829,-0.67488,-0.640883,-0.651678,-0.668596,-0.643138,-0.652645,-0.681325,-0.661829,-0.652483,-0.649905,-0.673591,-0.636854,-0.63911,-0.647005,-0.654095,-0.629282,-0.650711,-0.636693,-0.658606,-0.65909,-0.65909,-0.670368,-0.64201,-0.644911,-0.655384,-0.643461,-0.650228,-0.667146,-0.632504,-0.633954,-0.66054,-0.622514,-0.630087,-0.664568,-0.607852,-0.665696,-0.638143,-0.630571,-0.664729,-0.653289,-0.617842,-0.630571,-0.620581,-0.616553,-0.661829,-0.607852,-0.612847,-0.626704,-0.617197,-0.586906,-0.604791,-0.564832,-0.615747,-0.639271,-0.567249,-0.595123,-0.617842,-0.576755,-0.63186,-0.589484,-0.613008,-0.610108,-0.568377,-0.59754,-0.588195,-0.572083,-0.575788,-0.584973,-0.593351,-0.54872,-0.555648,-0.568054,-0.572083,-0.541952,-0.56161,-0.538891,-0.541147,-0.531963,-0.535024,-0.53728,-0.516978,-0.518428,-0.531157,-0.49861,-0.502477,-0.53873,-0.500866,-0.487331,-0.506022,-0.479759,-0.500544,-0.516495,-0.459296,-0.491682,-0.477342,-0.48137,-0.469285,-0.480081,-0.490393,-0.477181,-0.466869,-0.504733,-0.481692,-0.434966,-0.466707,-0.446889,-0.434644,-0.448823,-0.441572,-0.447211,-0.433355,-0.466224,-0.427877,-0.456879,-0.491843,-0.422559,-0.480725,-0.426588,-0.456879,-0.453656,-0.436738,-0.465257,-0.438188,-0.44125,-0.467191,-0.432549,-0.414342,-0.445439,-0.438027,-0.416598,-0.445761,-0.436577,-0.426588,-0.443828,-0.454945,-0.429166,-0.432549,-0.451078,-0.41257,-0.449467,-0.44415,-0.452045,-0.428682,-0.433999,-0.437705,-0.444795,-0.418854,-0.430616,-0.438511,-0.447856,-0.44125,-0.444311,-0.421432,-0.472347,-0.436738,-0.449628,-0.424654,-0.443022,-0.419337,-0.428682,-0.46558,-0.433033,-0.467191,-0.444795,-0.46848,-0.463163,-0.435288,-0.466546,-0.458812,-0.449467,-0.459779,-0.447695,-0.461874,-0.444633,-0.480081,-0.454623,-0.455429,-0.487492,-0.46139,-0.467191,-0.459135,-0.463646,-0.447856,-0.514722,-0.449306,-0.472025,-0.488943,-0.467674,-0.466224,-0.484109,-0.456879,-0.465902,-0.484109,-0.472186,-0.472508,-0.494582,-0.49426,-0.478147,-0.47138,-0.466224,-0.486042,-0.481692,-0.475569,-0.497321,-0.503766,-0.469285,-0.493293,-0.474441,-0.495388,-0.491198,-0.496032,-0.504572,-0.518106,-0.496354,-0.490715,-0.497643,-0.501833,-0.506988,-0.503927,-0.469124,-0.509083,-0.496193,-0.501994,-0.517623,-0.500382,-0.517139,-0.530351,-0.561771,-0.504894,-0.524068,-0.527612,-0.550009,-0.553876,-0.546303,-0.546464,-0.550653,-0.559676,-0.538085,-0.560643,-0.547753,-0.552748,-0.581428,-0.550009,-0.533252,-0.556776,-0.526968,-0.548075,-0.570149,-0.556937,-0.553392,-0.548881,-0.521167,-0.566282,-0.543725,-0.559837,-0.541147,-0.549042,-0.534541,-0.541791,-0.544691,-0.525195,-0.54872,-0.52729,-0.519073,-0.557581,-0.53019,-0.550814,-0.52584,-0.519234,-0.556615,-0.536152,-0.529224,-0.518267,-0.537602,-0.522779,-0.494421,-0.569827,-0.508761,-0.507955,-0.521812,-0.516656,-0.53019,-0.555487,-0.503444,-0.542758,-0.574983,-0.52439,-0.529062,-0.56306,-0.533896,-0.554842,-0.541791,-0.550492,-0.556454,-0.556131,-0.551136,-0.553714,-0.532607,-0.572727,-0.57321,-0.55307,-0.563704,-0.569343,-0.556615,-0.571116,-0.588517,-0.581911,-0.570632,-0.580783,-0.579333,-0.583845,-0.606563,-0.571599,-0.588034,-0.597701,-0.577077,-0.604952,-0.597701,-0.592062,-0.56596,-0.594479,-0.593673,-0.615425,-0.558065,-0.590128,-0.612202,-0.559193,-0.590451,-0.566282,-0.594318,-0.5774,-0.590612,-0.541791,-0.55742,-0.607852,-0.531802,-0.567893,-0.589001,-0.57031,-0.568699,-0.584973,-0.577239,-0.576594,-0.615425,-0.587389,-0.58175,-0.589001,-0.544208,-0.598024,-0.554359,-0.619614,-0.5774,-0.579655,-0.573533,-0.568216,-0.59319,-0.571116,-0.587873,-0.581428,-0.591901,-0.590773,-0.591417,-0.615425,-0.609141,-0.598829,-0.601407,-0.58175,-0.623159,-0.621548,-0.583361,-0.599957,-0.629443,-0.621225,-0.599313,-0.636049,-0.603341,-0.600924,-0.641688,-0.604146,-0.612202,-0.616392,-0.605919,-0.630571,-0.625737,-0.607852,-0.635404,-0.618647,-0.658606,-0.628315,-0.65635,-0.624126,-0.637338,-0.641366,-0.594962,-0.650067,-0.632343,-0.628959,-0.636854,-0.610752,-0.613814,-0.599635,-0.595607,-0.587389,-0.602857,-0.589001,-0.574338,-0.596412,-0.569343,-0.563704,-0.585134,-0.556292,-0.570794,-0.576272,-0.602213,-0.577722,-0.610591,-0.564832,-0.62767,-0.619936,-0.614942,-0.581267,-0.626543,-0.59609,-0.600118,-0.593029,-0.576594,-0.596251,-0.57885,-0.562899,-0.596412,-0.545819,-0.569827,-0.560965,-0.550653,-0.555003,-0.579172,-0.548558,-0.572727,-0.576111,-0.545175,-0.58175,-0.586423,-0.561126,-0.596735,-0.593351,-0.584489,-0.595284,-0.647489,-0.644911,-0.616231,-0.686964,-0.665535,-0.695504,-0.686481,-0.688253,-0.731434,-0.721445,-0.734173,-0.761726,-0.77236,-0.767687,-0.799267,-0.804423,-0.801684,-0.820536,-0.791695,-0.799912,-0.810868,-0.81393,-0.812157,-0.804907,-0.830042,-0.811996,-0.827303,-0.808774,-0.832942,-0.818602,-0.82682,-0.83407,-0.842771,-0.812641,-0.848894,-0.817958,-0.817152,-0.824725,-0.819569,-0.798462,-0.832459,-0.812641,-0.792822,-0.796528,-0.819086,-0.785733,-0.797173,-0.757697,-0.728212,-0.763015,-0.716127,-0.694215,-0.700498,-0.665535,-0.666985,-0.632987,-0.61333,-0.621225,-0.577077,-0.562093,-0.562254,-0.565154,-0.504733,-0.533574,-0.502316,-0.482659,-0.467513,-0.49007,-0.45124,-0.411925,-0.416114,-0.386307,-0.384373,-0.344575,-0.303811,-0.299622,-0.280126,-0.226955,-0.225021,-0.169595,-0.146393,-0.119485,-0.05713,-0.005892,-0.015721,0.095455,0.090782,0.155877,0.18214,0.235311,0.264636,0.297827,0.362599,0.404492,0.463625,0.489405,0.531942,0.563039,0.593814,0.619432,0.651819,0.68501,0.71079,0.744465,0.773468,0.801182,0.831956,0.856286,0.879811,0.900274,0.912519,0.92122,0.92412,0.91413,0.894634,0.86257,0.812621,0.777657,0.68211,0.606059,0.544509,0.437361,0.356316,0.292349,0.184235,0.112695,0.001519,-0.109012,-0.158316,-0.26788,-0.380023,-0.436255,-0.533091,-0.592545,-0.691959,-0.732401,-0.836648,-0.857917,-0.906737,-0.935739,-0.952496,-0.984077,-1.002767,-1.010662,-1.018074,-1.020652,-1.027097,-1.048848,-1.055293,-1.049976,-1.050782,-1.062061,-1.054004,-1.062705,-1.0735,-1.062866,-1.064316,-1.059483,-1.067539,-1.050299,-1.056744,-1.044337,-1.049171,-1.043209,-1.036925,-1.05046,-1.040309,-1.038214,-1.03902,-1.033703,-1.031125,-1.037731,-1.019685,-1.027097,-1.038537,-1.015335,-1.026291,-1.044981,-1.020813,-1.049171,-1.03902,-1.018557,-1.02903,-1.026613,-1.019363,-1.025324,-1.014529,-1.029997,-1.032897,-1.008729,-1.003734,-1.018718,-0.989555,-1.008729,-1.002284,-0.956041,-0.962969,-0.965225,-0.963131,-0.953624,-0.951368,-0.902387,-0.933806,-0.902065,-0.902065,-0.885147,-0.892075,-0.862428,-0.858722,-0.83117,-0.796689,-0.806518,-0.794917,-0.730467,-0.774938,-0.711777,-0.685675,-0.682614,-0.674557,-0.619614,-0.600924,-0.603663,-0.586423,-0.57031,-0.507472,-0.539697,-0.538891,-0.50715,-0.51005,-0.519395,-0.511339,-0.540019,-0.55162,-0.560804,-0.562899,-0.607046,-0.613169,-0.646522,-0.667951,-0.669724,-0.675363,-0.737557,-0.790244,-0.807485,-0.821019,-0.843254,-0.867423,-0.903354,-0.907543,-0.939606,-0.943151,-0.980693,-0.992294,-1.013401,-1.025647,-1.045626,-1.04337,-1.067378,-1.067055,-1.066572,-1.083168,-1.079784,-1.093158,-1.099441,-1.088807,-1.088968,-1.09203,-1.078173,-1.083007,-1.065605,-1.065444,-1.033703,-1.054488,-1.004862,-1.003089,-1.002606,-0.93864,-0.935739,-0.953302,-0.913504,-0.916243,-0.915438,-0.882246,-0.908026,-0.875479,-0.872095,-0.862589,-0.87709,-0.905932,-0.878379,-0.892397,-0.880635,-0.873546,-0.935901,-0.910765,-0.937995,-0.955074,-0.94589,-0.970381,-0.987944,-1.004539,-0.974248,-1.00325,-1.002284,-1.024519,-1.025485,-1.021619,-1.015979,-1.015012,-1.015174,-1.005023,-1.008729,-0.982143,-0.967481,-0.985204,-0.918499,-0.924139,-0.90432,-0.874512,-0.861622,-0.819247,-0.813446,-0.784444,-0.750769,-0.721283,-0.750769,-0.701304,-0.690348,-0.689381,-0.63766,-0.64475,-0.643944,-0.616553,-0.630248,-0.599474,-0.61897,-0.620259,-0.60753,-0.596735,-0.643944,-0.547592,-0.574177,-0.551459,-0.519073,-0.540825,-0.509405,-0.50006,-0.483948,-0.470897,-0.462679,-0.480403,-0.452045,-0.440605,-0.454945,-0.444633,-0.472025,-0.450595,-0.434483,-0.47428,-0.433194,-0.451562,-0.451401,-0.456396,-0.47573,-0.473797,-0.474119,-0.487815,-0.499416,-0.515689,-0.524068,-0.533896,-0.537763,-0.55597,-0.512467,-0.563865,-0.532124,-0.576755,-0.56161,-0.570632,-0.546464,-0.545819,-0.542758,-0.541308,-0.531479,-0.48862,-0.545497,-0.518106,-0.496677,-0.506988,-0.47992,-0.44415,-0.419176,-0.434805,-0.377606,-0.399841,-0.367616,-0.352793,-0.362299,-0.337325,-0.344898,-0.322018,-0.317184,-0.266591,-0.282381,-0.263208,-0.28077,-0.23775,-0.225827,-0.230661,-0.247579,-0.206009,-0.241134,-0.249834,-0.236622,-0.26498,-0.235817,-0.278998,-0.28641,-0.308806,-0.312834,-0.332813,-0.360043,-0.377284,-0.411442,-0.391301,-0.390496,-0.409992,-0.417726,-0.420304,-0.432388,-0.415792,-0.439477,-0.453979,-0.424654,-0.430455,-0.447211,-0.391785,-0.44705,-0.41112,-0.398069,-0.424493,-0.385018,-0.349409,-0.380023,-0.355048,-0.311062,-0.324274,-0.267236,-0.235817,-0.232433,-0.202786,-0.186351,-0.193441,-0.148165,-0.146232,-0.161538,-0.130119,-0.15316,-0.145104,-0.119646,-0.13592,-0.133503,-0.127863,-0.136725,-0.160572,-0.148004,-0.171206,-0.159605,-0.130764,-0.198114,-0.11304,-0.1704,-0.141398,-0.115779,-0.12593,-0.151226,-0.11304,-0.107884,-0.107239,-0.09016,-0.101439,-0.05423,-0.052135,-0.07147,-0.0328,-0.032317,-0.05423,-0.064058,-0.072114,-0.100633,-0.104984,-0.097733,-0.130441,-0.137692,-0.172656,-0.205203,-0.224377,-0.270942,-0.278192,-0.306228,-0.349892,-0.392429,-0.390174,-0.42401,-0.455429,-0.464774,-0.498449,-0.486526,-0.542275,-0.558226,-0.548881,-0.572727,-0.550814,-0.589806,-0.543725,-0.578528,-0.574016,-0.551459,-0.537119,-0.546625,-0.49281,-0.492326,-0.445278,-0.438511,-0.431744,-0.438994,-0.371322,-0.400485,-0.354887,-0.331847,-0.342642,-0.298172,-0.29656,-0.307517,-0.29656,-0.300589,-0.327818,-0.300427,-0.331524,-0.351343,-0.308967,-0.342642,-0.406286,-0.394202,-0.441572,-0.449628,-0.46139,-0.507955,-0.512467,-0.473797,-0.55017,-0.540019,-0.529707,-0.551781,-0.536152,-0.527773,-0.516978,-0.541952,-0.513756,-0.532929,-0.492971,-0.474925,-0.511983,-0.472347,-0.484753,-0.460262,-0.469285,-0.440444,-0.467674,-0.427393,-0.453012,-0.50151,-0.475892,-0.479436,-0.49426,-0.507472,-0.510372,-0.533252,-0.508922,-0.542758,-0.542597,-0.508116,-0.560159,-0.552103,-0.545658,-0.559837,-0.559515,-0.543241,-0.57885,-0.5774,-0.599635,-0.635082,-0.613653,-0.624287,-0.692281,-0.620581,-0.67923,-0.69067,-0.676813,-0.703721,-0.703238,-0.703076,-0.707105,-0.71081,-0.68068,-0.711455,-0.69067,-0.704365,-0.713711,-0.681002,-0.697115,-0.685353,-0.687286,-0.679391,-0.682775,-0.655061,-0.639594,-0.693248,-0.633149,-0.685353,-0.674396,-0.618647,-0.626704,-0.647328,-0.652645,-0.64201,-0.648778,-0.613169,-0.634921,-0.652322,-0.641849,-0.678424,-0.634921,-0.636049,-0.654417,-0.632987,-0.639271,-0.641527,-0.598346,-0.609463,-0.623803,-0.596412,-0.60898,-0.627026,-0.604146,-0.627026,-0.590773,-0.58175,-0.580139,-0.578205,-0.563543,-0.586423,-0.575144,-0.556615,-0.574983,-0.549847,-0.549525,-0.552909,-0.513111,-0.523745,-0.525679,-0.510855,-0.510533,-0.498771,-0.499899,-0.504733,-0.497482,-0.461551,-0.473636,-0.491359,-0.478147,-0.439155,-0.467352,-0.438511,-0.42546,-0.485076,-0.431421,-0.446889,-0.409831,-0.413859,-0.448984,-0.434644,-0.414826,-0.395168,-0.411442,-0.390657,-0.38824,-0.396618,-0.365844,-0.384051,-0.364555,-0.348281,-0.35102,-0.329107,-0.340708,-0.333297,-0.332491,-0.328785,-0.362944,-0.306389,-0.351343,-0.380345,-0.312512,-0.378411,-0.360849,-0.353598,-0.397102,-0.374061,-0.407253,-0.408703,-0.409025,-0.426104,-0.444795,-0.420304,-0.473314,-0.439316,-0.456073,-0.445117,-0.442861,-0.397907,-0.399519,-0.430132,-0.379056,-0.399035,-0.333136,-0.322824,-0.294627,-0.293499,-0.285282,-0.24774,-0.264174,-0.197952,-0.209231,-0.226149,-0.193924,-0.199725,-0.175556,-0.157188,-0.160088,-0.188446,-0.181034,-0.185868,-0.173945,-0.183129,-0.193602,-0.191024,-0.203753,-0.223893,-0.217932,-0.231305,-0.258535,-0.264174,-0.283026,-0.276903,-0.245001,-0.270619,-0.264174,-0.214226,-0.27642,-0.194891,-0.192635,-0.204558,-0.196986,-0.183451,-0.171528,-0.155577,-0.156382,-0.150099,-0.157027,-0.108528,-0.1045,-0.12158,-0.111429,-0.106434,-0.118035,-0.092738,-0.112557,-0.105789,-0.092094,-0.116907,-0.122385,-0.156221,-0.140431,-0.16895,-0.212131,-0.220349,-0.252574,-0.25918,-0.27932,-0.279965,-0.312834,-0.351343,-0.341031,-0.393235,-0.378895,-0.405803,-0.448339,-0.417403,-0.445278,-0.467513,-0.448984,-0.486203,-0.48572,-0.487654,-0.498127,-0.509566,-0.517945,-0.513272,-0.512789,-0.53873,-0.534218,-0.53873,-0.531963,-0.530835,-0.560643,-0.551459,-0.571116,-0.557098,-0.574338,-0.546303,-0.579978,-0.560159,-0.556937,-0.568054,-0.565477,-0.581428,-0.553392,-0.534541,-0.552264,-0.53728,-0.516817,-0.534541,-0.499416,-0.501027,-0.491359,-0.495871,-0.471863,-0.48137,-0.462679,-0.476858,-0.454784,-0.440122,-0.446406,-0.451562,-0.449628,-0.442539,-0.421109,-0.391946,-0.415631,-0.395813,-0.400808,-0.402741,-0.383567,-0.402902,-0.383729,-0.385823,-0.36101,-0.389207,-0.370677,-0.367294,-0.391624,-0.373094,-0.365522,-0.375672,-0.369389,-0.394685,-0.371483,-0.366972,-0.371161,-0.380023,-0.357788,-0.364233,-0.352954,-0.322501,-0.351181,-0.314767,-0.311384,-0.306872,-0.291404,-0.29076,-0.262724,-0.278514,-0.279159,-0.270619,-0.236622,-0.255151,-0.215837,-0.234366,-0.242906,-0.212776,-0.256924,-0.19038,-0.215032,-0.205042,-0.16605,-0.191669,-0.139787,-0.152676,-0.18619,-0.147037,-0.145265,-0.170722,-0.169433,-0.165083,-0.184418,-0.139142,-0.23485,-0.187318,-0.171367,-0.235978,-0.210681,-0.235333,-0.274809,-0.271908,-0.26933,-0.309611,-0.31654,-0.323146,-0.371,-0.377606,-0.395974,-0.418531,-0.410797,-0.470252,-0.464935,-0.487976,-0.483787,-0.496515,-0.511661,-0.529868,-0.547431,-0.53728,-0.560965,-0.533252,-0.58465,-0.577077,-0.571277,-0.583684,-0.563704,-0.574016,-0.597218,-0.59899,-0.598668,-0.631054,-0.61478,-0.602535,-0.607046,-0.626059,-0.622514,-0.610752,-0.651678,-0.639916,-0.642172,-0.689864,-0.62767,-0.662151,-0.661023,-0.65909,-0.701465,-0.688092,-0.70211,-0.715644,-0.723378,-0.73514,-0.72934,-0.736268,-0.713227,-0.764948,-0.72225,-0.747063,-0.751897,-0.744163,-0.752864,-0.742874,-0.716933,-0.70936,-0.760759,-0.717255,-0.715966,-0.714194,-0.688414,-0.680519,-0.700337,-0.661506,-0.669401,-0.666662,-0.616392,-0.618325,-0.623965,-0.595607,-0.60608,-0.584973,-0.582072,-0.582072,-0.587228,-0.567249,-0.591256,-0.56161,-0.553714,-0.602857,-0.579333,-0.558065,-0.626381,-0.576433,-0.620742,-0.639432,-0.619614,-0.626704,-0.623965,-0.65055,-0.627026,-0.681164,-0.627831,-0.666985,-0.662957,-0.646361,-0.671657,-0.666662,-0.64765,-0.660217,-0.676008,-0.666985,-0.68922,-0.675685,-0.660701,-0.67633,-0.667951,-0.647328,-0.649744,-0.675524,-0.660056,-0.681647,-0.672785,-0.621548,-0.661506,-0.636049,-0.664568,-0.630732,-0.642494,-0.64765,-0.631698,-0.594801,-0.601085,-0.618003,-0.583845,-0.599151,-0.564832,-0.535185,-0.536313,-0.511661,-0.477825,-0.47573,-0.464774,-0.421915,-0.428038,-0.392429,-0.347476,-0.37245,-0.300105,-0.329913,-0.318151,-0.265625,-0.256924,-0.25209,-0.205203,-0.201819,-0.179101,-0.167661,-0.110623,-0.107078,-0.083554,-0.065508,-0.030061,-0.017654,0.005225,0.048729,0.072736,0.10335,0.131547,0.160549,0.20647,0.254968,0.303467,0.331825,0.376456,0.438328,0.476031,0.508417,0.552727,0.587207,0.609765,0.636834,0.671315,0.689038,0.718685,0.742371,0.7609,0.778785,0.797476,0.807627,0.814716,0.819389,0.814555,0.808593,0.796509,0.774596,0.726258,0.712402,0.67776,0.601386,0.543704,0.501972,0.419315,0.355027,0.309751,0.215815,0.157166,0.054852,0.021982,-0.028933,-0.136403,-0.201336,-0.228244,-0.321374,-0.35811,-0.422237,-0.479114,-0.561126,-0.572083,-0.638305,-0.673268,-0.704204,-0.7237,-0.759309,-0.777838,-0.781544,-0.810707,-0.804907,-0.827786,-0.829236,-0.852116,-0.854372,-0.854372,-0.851633,-0.856628,-0.853083,-0.853888,-0.864039,-0.849699,-0.864362,-0.881441,-0.856466,-0.865006,-0.875157,-0.872901,-0.860817,-0.889175,-0.871773,-0.870162,-0.878702,-0.880474,-0.86984,-0.865489,-0.854211,-0.863073,-0.840515,-0.834715,-0.84841,-0.818119,-0.814896,-0.80974,-0.773004,-0.769621,-0.827303,-0.761887,-0.786861,-0.757536,-0.735785,-0.750769,-0.740779,-0.73659,-0.736429,-0.73804,-0.727406,-0.766559,-0.731918,-0.744324,-0.761081,-0.723056,-0.744324,-0.777999,-0.77091,-0.765431,-0.802651,-0.780094,-0.7896,-0.810707,-0.768171,-0.817313,-0.813769,-0.824564,-0.827947,-0.823919,-0.814735,-0.847927,-0.835037,-0.846477,-0.859206,-0.841643,-0.861945,-0.871773,-0.853083,-0.878379,-0.870968,-0.878057,-0.877413,-0.878218,-0.887886,-0.899809,-0.903031,-0.888691,-0.919949,-0.916727,-0.923011,-0.929939,-0.925266,-0.935739,-0.947179,-0.941862,-0.942184,-0.935256,-0.932195,-0.917371,-0.924461,-0.917532,-0.910604,-0.903515,-0.89997,-0.884985,-0.909798,-0.880474,-0.881924,-0.890625,-0.865651,-0.883858,-0.887402,-0.890625,-0.90432,-0.882407,-0.899809,-0.926072,-0.920916,-0.925105,-0.944279,-0.938801,-0.939606,-0.96168,-0.946535,-0.97022,-0.973281,-0.976182,-0.985527,-0.987621,-0.978115,-0.964903,-0.985366,-0.962325,-0.977793,-0.969253,-0.943635,-0.964903,-0.953946,-0.920433,-0.943312,-0.917049,-0.903676,-0.914632,-0.893686,-0.853566,-0.889013,-0.824886,-0.841643,-0.817958,-0.79105,-0.765109,-0.768493,-0.779771,-0.770104,-0.757214,-0.754153,-0.749641,-0.786861,-0.761887,-0.75383,-0.762048,-0.755442,-0.764142,-0.821825,-0.7867,-0.795723,-0.833426,-0.806357,-0.811835,-0.862267,-0.826981,-0.822792,-0.852438,-0.833587,-0.858078,-0.887886,-0.865006,-0.863717,-0.861784,-0.845832,-0.859689,-0.806679,-0.820052,-0.830364,-0.788633,-0.774777,-0.783155,-0.718705,-0.699854,-0.735946,-0.65909,-0.673752,-0.669724,-0.632665,-0.619292,-0.644588,-0.61897,-0.625737,-0.607369,-0.599151,-0.626704,-0.651194,-0.61333,-0.665051,-0.633149,-0.690348,-0.695665,-0.675846,-0.709199,-0.737074,-0.723378,-0.75093,-0.761564,-0.747224,-0.75802,-0.74803,-0.779127,-0.77091,-0.753347,-0.764948,-0.761081,-0.74948,-0.721283,-0.745452,-0.723861,-0.683419,-0.737557,-0.670852,-0.687609,-0.659412,-0.649744,-0.624448,-0.617197,-0.593351,-0.604307,-0.626381,-0.557743,-0.58755,-0.536474,-0.516011,-0.548236,-0.531157,-0.526807,-0.530029,-0.531479,-0.502638,-0.52584,-0.545175,-0.469769,-0.544208,-0.51295,-0.51005,-0.515045,-0.500866,-0.500705,-0.52294,-0.5173,-0.521329,-0.506666,-0.468963,-0.480242,-0.483787,-0.482014,-0.479114,-0.45849,-0.496515,-0.471541,-0.470897,-0.457201,-0.463646,-0.473797,-0.45124,-0.456718,-0.4485,-0.469608,-0.465096,-0.480564,-0.461068,-0.497321,-0.469124,-0.471863,-0.468641,-0.484109,-0.47138,-0.475569,-0.425299,-0.493776,-0.465741,-0.461713,-0.480242,-0.45994,-0.457201,-0.463324,-0.49426,-0.459618,-0.475569,-0.481853,-0.446567,-0.482175,-0.481531,-0.467513,-0.459618,-0.474441,-0.480886,-0.437544,-0.46139,-0.41692,-0.458651,-0.453979,-0.433999,-0.450756,-0.455268,-0.444311,-0.463646,-0.481692,-0.440766,-0.491198,-0.462679,-0.500382,-0.494421,-0.47428,-0.490393,-0.536635,-0.5173,-0.534541,-0.549525,-0.495065,-0.554359,-0.555487,-0.529868,-0.590934,-0.56886,-0.582717,-0.618809,-0.577561,-0.590128,-0.630893,-0.574499,-0.591579,-0.621387,-0.582233,-0.619292,-0.638305,-0.613008,-0.622192,-0.587389,-0.598668,-0.607046,-0.592384,-0.60318,-0.588839,-0.601085,-0.594318,-0.60463,-0.597218,-0.586745,-0.626543,-0.588517,-0.593351,-0.597379,-0.592545,-0.578205,-0.597701,-0.613814,-0.5774,-0.569343,-0.595284,-0.583039,-0.561932,-0.587389,-0.569505,-0.552909,-0.574338,-0.577561,-0.571277,-0.563221,-0.566765,-0.555648,-0.562415,-0.56451,-0.572727,-0.593834,-0.566604,-0.59319,-0.583361,-0.550975,-0.615747,-0.54018,-0.579655,-0.597379,-0.584489,-0.612041,-0.57885,-0.579172,-0.611236,-0.589484,-0.586584,-0.644427,-0.614942,-0.637821,-0.652806,-0.606563,-0.671335,-0.662312,-0.673268,-0.653934,-0.689381,-0.67633,-0.698565,-0.702593,-0.669885,-0.726278,-0.71645,-0.739168,-0.733368,-0.710649,-0.749319,-0.75238,-0.736429,-0.758342,-0.753025,-0.751252,-0.735462,-0.746097,-0.756892,-0.752219,-0.76527,-0.781705,-0.764465,-0.730145,-0.742552,-0.743519,-0.750286,-0.733207,-0.735623,-0.740135,-0.720317,-0.70356,-0.696309,-0.710166,-0.687609,-0.687125,-0.654095,-0.653934,-0.645394,-0.616392,-0.62767,-0.607046,-0.62187,-0.598829,-0.609947,-0.556615,-0.57321,-0.564026,-0.535991,-0.56741,-0.520201,-0.529224,-0.539536,-0.555487,-0.541952,-0.559515,-0.52584,-0.536474,-0.565315,-0.544691,-0.544047,-0.580461,-0.570955,-0.609786,-0.60898,-0.584328,-0.616553,-0.602052,-0.631698,-0.626059,-0.623159,-0.650228,-0.650872,-0.664084,-0.651839,-0.652645,-0.649261,-0.67343,-0.661184,-0.655706,-0.638788,-0.654417,-0.645394,-0.617358,-0.672624,-0.642333,-0.622353,-0.62187,-0.601085,-0.593351,-0.590612,-0.575466,-0.560965,-0.573855,-0.512467,-0.544208,-0.55887,-0.52729,-0.55452,-0.525034,-0.54453,-0.533896,-0.547431,-0.526807,-0.544208,-0.528418,-0.503121,-0.542114,-0.534541,-0.512467,-0.54598,-0.55307,-0.559354,-0.541791,-0.551298,-0.52874,-0.583845,-0.563543,-0.548558,-0.578689,-0.561126,-0.597057,-0.589162,-0.606885,-0.59609,-0.626704,-0.579978,-0.592223,-0.60608,-0.606885,-0.620098,-0.588195,-0.607046,-0.636532,-0.618003,-0.614619,-0.603985,-0.60753,-0.594318,-0.617197,-0.594157,-0.586906,-0.59029,-0.54872,-0.573372,-0.577561,-0.575144,-0.574016,-0.566927,-0.561771,-0.562093,-0.547592,-0.565315,-0.539374,-0.549364,-0.529224,-0.565477,-0.532768,-0.546142,-0.536152,-0.54018,-0.528418,-0.542919,-0.518428,-0.512789,-0.591256,-0.530674,-0.535669,-0.532446,-0.528096,-0.548075,-0.546142,-0.545497,-0.539052,-0.508922,-0.521329,-0.546303,-0.512467,-0.504572,-0.539213,-0.487654,-0.535991,-0.541469,-0.511339,-0.545014,-0.549847,-0.518428,-0.526646,-0.532768,-0.495388,-0.541952,-0.533091,-0.502155,-0.545658,-0.519878,-0.516817,-0.543241,-0.532607,-0.501349,-0.547269,-0.53583,-0.527935,-0.537602,-0.517623,-0.536958,-0.512306,-0.526968,-0.534863,-0.497643,-0.517462,-0.537924,-0.543403,-0.510533,-0.509566,-0.510533,-0.508761,-0.498127,-0.480725,-0.525034,-0.498288,-0.50715,-0.507955,-0.484914,-0.512467,-0.482336,-0.480725,-0.511017,-0.527129,-0.499577,-0.487815,-0.511661,-0.516334,-0.497966,-0.502155,-0.511983,-0.496515,-0.506666,-0.487492,-0.488137,-0.506988,-0.524068,-0.517139,-0.518267,-0.536313,-0.52729,-0.474119,-0.523423,-0.497643,-0.499255,-0.515045,-0.496515,-0.55162,-0.54872,-0.507311,-0.515528,-0.538247,-0.499577,-0.548558,-0.56306,-0.505861,-0.561771,-0.52584,-0.565477,-0.542919,-0.559676,-0.529385,-0.534863,-0.524229,-0.535991,-0.545497,-0.516173,-0.530513,-0.517462,-0.522779,-0.512144,-0.526162,-0.483625,-0.491037,-0.518589,-0.508116,-0.478147,-0.54308,-0.466869,-0.47138,-0.493615,-0.464774,-0.480403,-0.469285,-0.480564,-0.443344,-0.471219,-0.475569,-0.455107,-0.453656,-0.437061,-0.449789,-0.457846,-0.463485,-0.435127,-0.453012,-0.442055,-0.484109,-0.453173,-0.420304,-0.502155,-0.446245,-0.465741,-0.476697,-0.495065,-0.487976,-0.475892,-0.485559,-0.489909,-0.507311,-0.455107,-0.505055,-0.508439,-0.460262,-0.508277,-0.501027,-0.483142,-0.521812,-0.497966,-0.494421,-0.503766,-0.497804,-0.502799,-0.515367,-0.495871,-0.529385,-0.505377,-0.501188,-0.505861,-0.473636,-0.48282,-0.476697,-0.440122,-0.45849,-0.423848,-0.42981,-0.397907,-0.416437,-0.36246,-0.384212,-0.380828,-0.387273,-0.351665,-0.353921,-0.389529,-0.354726,-0.388723,-0.368744,-0.359238,-0.348603,-0.365683,-0.359399,-0.386951,-0.390818,-0.378411,-0.40548,-0.406447,-0.412248,-0.424976,-0.413698,-0.422882,-0.449951,-0.428843,-0.451401,-0.466385,-0.429649,-0.477342,-0.475086,-0.473475,-0.484914,-0.481209,-0.45849,-0.487815,-0.453012,-0.493937,-0.46993,-0.490715,-0.45849,-0.47992,-0.473475,-0.477825,-0.450756,-0.388562,-0.381473,-0.395652,-0.346992,-0.34667,-0.316379,-0.291566,-0.266914,-0.284798,-0.222121,-0.245162,-0.222121,-0.194408,-0.245484,-0.235978,-0.229372,-0.243228,-0.230338,-0.254829,-0.290115,-0.293016,-0.299138,-0.340547,-0.341192,-0.355371,-0.371805,-0.385018,-0.423848,-0.424815,-0.454462,-0.496354,-0.503927,-0.541308,-0.559837,-0.584167,-0.563865,-0.602857,-0.581589,-0.617036,-0.599635,-0.611558,-0.627831,-0.613169,-0.603502,-0.607046,-0.583039,-0.613814,-0.569021,-0.59754,-0.608497,-0.588839,-0.596896,-0.577722,-0.577561,-0.603018,-0.554842,-0.593351,-0.598507,-0.569021,-0.583522,-0.621225,-0.604791,-0.60463,-0.621064,-0.606724,-0.583361,-0.621064,-0.596251,-0.586423,-0.589484,-0.55452,-0.584489,-0.555648,-0.51005,-0.542597,-0.532768,-0.471058,-0.463807,-0.47283,-0.443667,-0.448662,-0.418692,-0.428521,-0.453173,-0.437061,-0.461713,-0.474119,-0.462196,-0.46993,-0.492971,-0.493454,-0.522618,-0.555648,-0.552748,-0.602213,-0.625737,-0.619131,-0.662151,-0.691798,-0.705332,-0.736107,-0.763981,-0.762048,-0.801201,-0.810385,-0.811029,-0.835681,-0.845993,-0.870001,-0.875479,-0.885147,-0.886597,-0.89562,-0.89288,-0.899648,-0.920755,-0.920594,-0.921077,-0.926716,-0.919788,-0.91721,-0.926394,-0.923977,-0.909315,-0.908509,-0.876929,-0.884663,-0.883535,-0.826659,-0.858561,-0.834554,-0.804585,-0.837454,-0.794273,-0.754797,-0.748513,-0.729823,-0.696793,-0.694537,-0.681969,-0.637177,-0.584167,-0.563382,-0.546303,-0.463002,-0.485881,-0.377928,-0.339903,-0.32524,-0.265786,-0.238072,-0.172011,-0.126735,-0.108206,-0.050846,-0.026355,0.019082,0.04889,0.081759,0.086754,0.182623,0.197447,0.18214,0.277365,0.259641,0.311362,0.362277,0.34262,0.407231,0.425921,0.406425,0.46588,0.472487,0.484249,0.500361,0.520179,0.509867,0.53178,0.515346,0.516635,0.505678,0.465075,0.477643,0.446384,0.368561,0.323124,0.318774,0.22806,0.146854,0.082887,-0.006859,-0.073403,-0.143976,-0.232433,-0.309934,-0.378895,-0.475892,-0.540019,-0.59754,-0.682614,-0.71645,-0.814574,-0.855661,-0.918177,-0.957491,-0.974248,-1.002767,-1.013562,-1.035314,-1.028063,-1.0648,-1.074467,-1.077367,-1.088807,-1.098958,-1.108464,-1.09928,-1.111042,-1.116521,-1.105081,-1.115876,-1.102986,-1.121515,-1.109431,-1.09203,-1.102019,-1.100086,-1.083329,-1.09203,-1.085424,-1.076078,-1.077367,-1.054971,-1.041115,-1.060772,-1.04192,-1.036442,-1.042726,-1.023069,-1.012596,-1.013723,-1.007117,-0.993422,-0.98311,-0.9301,-0.983271,-0.974731,-0.975698,-0.935417,-0.939123,-0.905448,-0.917371,-0.900937,-0.886597,-0.893203,-0.887886,-0.843254,-0.80104,-0.787989,-0.811029,-0.73514,-0.762531,-0.695504,-0.70936,-0.676491,-0.650872,-0.678586,-0.627187,-0.621225,-0.62767,-0.611397,-0.573855,-0.59174,-0.558709,-0.546625,-0.587067,-0.542275,-0.535669,-0.557581,-0.509889,-0.547431,-0.53728,-0.52729,-0.555487,-0.549364,-0.542597,-0.590612,-0.585134,-0.575305,-0.654417,-0.614297,-0.629443,-0.652967,-0.651194,-0.688575,-0.699854,-0.685675,-0.704527,-0.736268,-0.738201,-0.756086,-0.794434,-0.751575,-0.828914,-0.791372,-0.807324,-0.834554,-0.827947,-0.828914,-0.853083,-0.77236,-0.794273,-0.779449,-0.742391,-0.73369,-0.690186,-0.667146,-0.630409,-0.596735,-0.591256,-0.554359,-0.524551,-0.509244,-0.483142,-0.519878,-0.504894,-0.49716,-0.486203,-0.480886,-0.491843,-0.502477,-0.508922,-0.526968,-0.512628,-0.506988,-0.550492,-0.538891,-0.536474,-0.59464,-0.574016,-0.5803,-0.602052,-0.580461,-0.5861,-0.642816,-0.586262,-0.588678,-0.630893,-0.56451,-0.585456,-0.588678,-0.562415,-0.564832,-0.54308,-0.526968,-0.543564,-0.536474,-0.515689,-0.550814,-0.520362,-0.50296,-0.533896,-0.494743,-0.529868,-0.525679,-0.499416,-0.478953,-0.490393,-0.491843,-0.52004,-0.481209,-0.478308,-0.476214,-0.480081,-0.443828,-0.467674,-0.432871,-0.468963,-0.440605,-0.443022,-0.458168,-0.445278,-0.436577,-0.409025,-0.475086,-0.435933,-0.458651,-0.466385,-0.491843,-0.498127,-0.496999,-0.501188,-0.503121,-0.525357,-0.521651,-0.549686,-0.532929,-0.533574,-0.546625,-0.542436,-0.559515,-0.561287,-0.567732,-0.568699,-0.544853,-0.595929,-0.538247,-0.546786,-0.543886,-0.511178,-0.505699,-0.521973,-0.485076,-0.465257,-0.445922,-0.402097,-0.425943,-0.386951,-0.35956,-0.369389,-0.306872,-0.290921,-0.298333,-0.257085,-0.247095,-0.240811,-0.239684,-0.195858,-0.214226,-0.193602,-0.175878,-0.181518,-0.196986,-0.197791,-0.20617,-0.202786,-0.249029,-0.263852,-0.255313,-0.327818,-0.337808,-0.344575,-0.393718,-0.39404,-0.428843,-0.475569,-0.463646,-0.509083,-0.53873,-0.547431,-0.55307,-0.60463,-0.592223,-0.607852,-0.64056,-0.654095,-0.640721,-0.663601,-0.671979,-0.656028,-0.643138,-0.619614,-0.640077,-0.651839,-0.589323,-0.619131,-0.599796,-0.581267,-0.582878,-0.565799,-0.505861,-0.528418,-0.456073,-0.462357,-0.449145,-0.380184,-0.381473,-0.359238,-0.30655,-0.298977,-0.301233,-0.240489,-0.239684,-0.249996,-0.195213,-0.236944,-0.228405,-0.21342,-0.248223,-0.217932,-0.212292,-0.25354,-0.273197,-0.254024,-0.288021,-0.298816,-0.338453,-0.343931,-0.325724,-0.380345,-0.396135,-0.392913,-0.433516,-0.442217,-0.470574,-0.469447,-0.500382,-0.511983,-0.503121,-0.560321,-0.549686,-0.561448,-0.589162,-0.594157,-0.584006,-0.617197,-0.615586,-0.600924,-0.597379,-0.568377,-0.580461,-0.59319,-0.573694,-0.548881,-0.539697,-0.539858,-0.537602,-0.505377,-0.540019,-0.514884,-0.472508,-0.513756,-0.525034,-0.513595,-0.512144,-0.537763,-0.487654,-0.507955,-0.541308,-0.516978,-0.535507,-0.551136,-0.549203,-0.542597,-0.565154,-0.523745,-0.585456,-0.515045,-0.551459,-0.541308,-0.520684,-0.557259,-0.559193,-0.57176,-0.545497,-0.55452,-0.577722,-0.528096,-0.560321,-0.529062,-0.524068,-0.535346,-0.523584,-0.526484,-0.528418,-0.527773,-0.532929,-0.545014,-0.515528,-0.521651,-0.564832,-0.517784,-0.519073,-0.558226,-0.551298,-0.59464,-0.584328,-0.554359,-0.602374,-0.618809,-0.557743,-0.614619,-0.59754,-0.614942,-0.642494,-0.656673,-0.647005,-0.669401,-0.633149,-0.685192,-0.681486,-0.670207,-0.653934,-0.687125,-0.665373,-0.66199,-0.68068,-0.670046,-0.606885,-0.634599,-0.612686,-0.567249,-0.62187,-0.553231,-0.569343,-0.570471,-0.545014,-0.554037,-0.537763,-0.527773,-0.513111,-0.509889,-0.485237,-0.499416,-0.513595,-0.494904,-0.529062,-0.480886,-0.503927,-0.511178,-0.513756,-0.506505,-0.544208,-0.521812,-0.520845,-0.572566,-0.545819,-0.546625,-0.596573,-0.588034,-0.593673,-0.626543,-0.624931,-0.647972,-0.661829,-0.664246,-0.678586,-0.709682,-0.680197,-0.700176,-0.705654,-0.692442,-0.708716,-0.729501,-0.69067,-0.717578,-0.672302,-0.679552,-0.732723,-0.687609,-0.700337,-0.699693,-0.699209,-0.716611,-0.718222,-0.702593,-0.71081,-0.706782,-0.711133,-0.71081,-0.734979,-0.709038,-0.726923,-0.726923,-0.721445,-0.710971,-0.705332,-0.705654,-0.710166,-0.669079,-0.645716,-0.704204,-0.636532,-0.656028,-0.679552,-0.65055,-0.672302,-0.658445,-0.634115,-0.661023,-0.679391,-0.671335,-0.693087,-0.718061,-0.698565,-0.724828,-0.719028,-0.723217,-0.746419,-0.77091,-0.761564,-0.764142,-0.771071,-0.773971,-0.7867,-0.805551,-0.789439,-0.800234,-0.773326,-0.796528,-0.779771,-0.789922,-0.794756,-0.784283,-0.750769,-0.737557,-0.743841,-0.715644,-0.719028,-0.694537,-0.652161,-0.663923,-0.656834,-0.621064,-0.566927,-0.605919,-0.569343,-0.576916,-0.570955,-0.534541,-0.551781,-0.54872,-0.562415,-0.546947,-0.513433,-0.543725,-0.588034,-0.520845,-0.569343,-0.610752,-0.539858,-0.611075,-0.604952,-0.607046,-0.651517,-0.637982,-0.643138,-0.667146,-0.665373,-0.64765,-0.681969,-0.667468,-0.672785,-0.71226,-0.653934,-0.694376,-0.679391,-0.681969,-0.658123,-0.677458,-0.657156,-0.633632,-0.67069,-0.600763,-0.626865,-0.635565,-0.595607,-0.598024,-0.605113,-0.547431,-0.554359,-0.593029,-0.554359,-0.568054,-0.594318,-0.546947,-0.576433,-0.578205,-0.530351,-0.582395,-0.581106,-0.575305,-0.60463,-0.577722,-0.589001,-0.645877,-0.607046,-0.601407,-0.62767,-0.59899,-0.611236,-0.627993,-0.607369,-0.599474,-0.600763,-0.564993,-0.578528,-0.577722,-0.542919,-0.589806,-0.539697,-0.55597,-0.567088,-0.51585,-0.512467,-0.562093,-0.468319,-0.481853,-0.502638,-0.445439,-0.462518,-0.463002,-0.425943,-0.449467,-0.438188,-0.395007,-0.40693,-0.396618,-0.394685,-0.413859,-0.403708,-0.400969,-0.410153,-0.418854,-0.422237,-0.45849,-0.463968,-0.463485,-0.500544,-0.482659,-0.485559,-0.526484,-0.52149,-0.540341,-0.547592,-0.582072,-0.553714,-0.572888,-0.605596,-0.581428,-0.598185,-0.596896,-0.59174,-0.624287,-0.602696,-0.631376,-0.621548,-0.615908,-0.623642,-0.636693,-0.599796,-0.636371,-0.647489,-0.612847,-0.661345,-0.614458,-0.619453,-0.641527,-0.627831,-0.606724,-0.630409,-0.607046,-0.590934,-0.59754,-0.579333,-0.614458,-0.579011,-0.584489,-0.579333,-0.574499,-0.564349,-0.556292,-0.565799,-0.548881,-0.545497,-0.535346,-0.526807,-0.532607,-0.534218,-0.511983,-0.54872,-0.498288,-0.509566,-0.538408,-0.511178,-0.5144,-0.52729,-0.508116,-0.546625,-0.579333,-0.52004,-0.55597,-0.578205,-0.568538,-0.59464,-0.574983,-0.574822,-0.580622,-0.57321,-0.565154,-0.582717,-0.589001,-0.580461,-0.576755,-0.564993,-0.587712,-0.5774,-0.573855,-0.582717,-0.570632,-0.550653,-0.570955,-0.600602,-0.58175,-0.56161,-0.599474,-0.576755,-0.572083,-0.619614,-0.562254,-0.575144,-0.623642,-0.589001,-0.59174,-0.641205,-0.608335,-0.650389,-0.617036,-0.593029,-0.606241,-0.628637,-0.601568,-0.624287,-0.611236,-0.587389,-0.607691,-0.605274,-0.5774,-0.609302,-0.553876,-0.591901,-0.593351,-0.549042,-0.549847,-0.57595,-0.543725,-0.562899,-0.535024,-0.527129,-0.570149,-0.528418,-0.537119,-0.521812,-0.519878,-0.537119,-0.530513,-0.539536,-0.510694,-0.540341,-0.493615,-0.517623,-0.521329,-0.455429,-0.487976,-0.48862,-0.481853,-0.511983,-0.481853,-0.461551,-0.475247,-0.519556,-0.437866,-0.504249,-0.495871,-0.516173,-0.513595,-0.515045,-0.495065,-0.524712,-0.525518,-0.538247,-0.528418,-0.561287,-0.547431,-0.571116,-0.585134,-0.600763,-0.565638,-0.616069,-0.583361,-0.592545,-0.602535,-0.613975,-0.605919,-0.592384,-0.633149,-0.610108,-0.617681,-0.62477,-0.608013,-0.617842,-0.638305,-0.608819,-0.611236,-0.613653,-0.616875,-0.595768,-0.59609,-0.573855,-0.576916,-0.562093,-0.591256,-0.59029,-0.585617,-0.604469,-0.587389,-0.612364,-0.594318,-0.643299,-0.605596,-0.643622,-0.654095,-0.694376,-0.651517,-0.686964,-0.676813,-0.733851,-0.732562,-0.737879,-0.746258,-0.75657,-0.767043,-0.792661,-0.788794,-0.80684,-0.783477,-0.801523,-0.814091,-0.817474,-0.856144,-0.851794,-0.84406,-0.867906,-0.865973,-0.871129,-0.880635,-0.886758,-0.870001,-0.89997,-0.890302,-0.903998,-0.921077,-0.906415,-0.921561,-0.908832,-0.905448,-0.908187,-0.894492,-0.883052,-0.891753,-0.877896,-0.841643,-0.871451,-0.814735,-0.842126,-0.844543,-0.825208,-0.832137,-0.829559,-0.820375,-0.834876,-0.80974,-0.798945,-0.833909,-0.798301,-0.817313,-0.830525,-0.820375,-0.85131,-0.855983,-0.85405,-0.85695,-0.872579,-0.875801,-0.861945,-0.893686,-0.885308,-0.896586,-0.885308,-0.878863,-0.893686,-0.882085,-0.876768,-0.877896,-0.887886,-0.833587,-0.855661,-0.845671,-0.826175,-0.852277,-0.83552,-0.82682,-0.808935,-0.835037,-0.815702,-0.820375,-0.832942,-0.812641,-0.847766,-0.828914,-0.846638,-0.872901,-0.84551,-0.852438,-0.874351,-0.83971,-0.8584,-0.859367,-0.844543,-0.856144,-0.881924,-0.828914,-0.854855,-0.841482,-0.818925,-0.829881,-0.830042,-0.784283,-0.808451,-0.756247,-0.765593,-0.749158,-0.687125,-0.706621,-0.713066,-0.636049,-0.661345,-0.611719,-0.582717,-0.587067,-0.566443,-0.524229,-0.510211,-0.540502,-0.460746,-0.522779,-0.458974,-0.477342,-0.45269,-0.421432,-0.447856,-0.410475,-0.355854,-0.354565,-0.324918,-0.311062,-0.283509,-0.261113,-0.187802,-0.205686,-0.160572,-0.156543,-0.108045,-0.069053,-0.058258,-0.026516,0.00442,0.015215,0.053563,0.101255,0.103995,0.142503,0.188102,0.234989,0.285582,0.312651,0.373395,0.419315,0.413193,0.486504,0.518729,0.533553,0.557722,0.578668,0.577862,0.592525,0.598647,0.593491,0.591719,0.578023,0.568195,0.539837,0.494238,0.457341,0.401753,0.345681,0.289449,0.212915,0.13203,0.095455,-0.009759,-0.118035,-0.132053,-0.264013,-0.329591,-0.387596,-0.492326,-0.579817,-0.614942,-0.728051,-0.776549,-0.84406,-0.914149,-0.947018,-0.98021,-1.022585,-1.035314,-1.050621,-1.061094,-1.055293,-1.091546,-1.091869,-1.109753,-1.093158,-1.120871,-1.12796,-1.119582,-1.126027,-1.13505,-1.143912,-1.153901,-1.155351,-1.15519,-1.174364,-1.166308,-1.169369,-1.16373,-1.161796,-1.174042,-1.153579,-1.167758,-1.165341,-1.159863,-1.16663,-1.17098,-1.155996,-1.171142,-1.180648,-1.168564,-1.175009,-1.167597,-1.163246,-1.173236,-1.164697,-1.163085,-1.16518,-1.163085,-1.168241,-1.174847,-1.156479,-1.160346,-1.157768,-1.140689,-1.1423,-1.13795,-1.140206,-1.119582,-1.140045,-1.107981,-1.101214,-1.116843,-1.064316,-1.111526,-1.092352,-1.076401,-1.105242,-1.072856,-1.061416,-1.075112,-1.063027,-1.054488,-1.065122,-1.059483,-1.048204,-1.074306,-1.026291,-1.0619,-1.043531,-1.043531,-1.038214,-1.053199,-1.025647,-1.018879,-1.041115,-0.988749,-1.02468,-1.04047,-1.009856,-1.02178,-0.993422,-1.016463,-0.961358,-0.963936,-0.958297,-0.948468,-0.945407,-0.905609,-0.888047,-0.850666,-0.861461,-0.856466,-0.836648,-0.810385,-0.811191,-0.802168,-0.790244,-0.811191,-0.784766,-0.759309,-0.786539,-0.75238,-0.781866,-0.82682,-0.792661,-0.810224,-0.845671,-0.847766,-0.888208,-0.919627,-0.902065,-0.955074,-0.969737,-0.965708,-1.004217,-1.01179,-1.013885,-1.062061,-1.067861,-1.065444,-1.10073,-1.101536,-1.105403,-1.116521,-1.108303,-1.111687,-1.133761,-1.117971,-1.130861,-1.152451,-1.138433,-1.139239,-1.144556,-1.126994,-1.138756,-1.108625,-1.127316,-1.11781,-1.09638,-1.108303,-1.103469,-1.107659,-1.091385,-1.074628,-1.081234,-1.048848,-1.051588,-1.007278,-1.034347,-1.023552,-1.008245,-0.995678,-0.995678,-0.959264,-0.971831,-0.978276,-0.948629,-0.932517,-0.947179,-0.925428,-0.895136,-0.907543,-0.879024,-0.892558,-0.875157,-0.872095,-0.85405,-0.887563,-0.820375,-0.857433,-0.828753,-0.820214,-0.819569,-0.858883,-0.789117,-0.811996,-0.765754,-0.766882,-0.792661,-0.75238,-0.803457,-0.783155,-0.796528,-0.805712,-0.800879,-0.792984,-0.809418,-0.821341,-0.798623,-0.849699,-0.832781,-0.81973,-0.878379,-0.865167,-0.882569,-0.902065,-0.871612,-0.895458,-0.934612,-0.897875,-0.920433,-0.940251,-0.918821,-0.917371,-0.933161,-0.886597,-0.932356,-0.914149,-0.900614,-0.908671,-0.898359,-0.896103,-0.884985,-0.901581,-0.880796,-0.888208,-0.892236,-0.890302,-0.872418,-0.890625,-0.840999,-0.896264,-0.873384,-0.888047,-0.896103,-0.870645,-0.824886,-0.885308,-0.869356,-0.858883,-0.881924,-0.878863,-0.83971,-0.878057,-0.845188,-0.866617,-0.878863,-0.857111,-0.876124,-0.842771,-0.853727,-0.853405,-0.824725,-0.834231,-0.848571,-0.842449,-0.83552,-0.835198,-0.811996,-0.824564,-0.824403,-0.807646,-0.828431,-0.814896,-0.831653,-0.825531,-0.81973,-0.829236,-0.799106,-0.830203,-0.805068,-0.829881,-0.798301,-0.821986,-0.808935,-0.835681,-0.831492,-0.828431,-0.812318,-0.831653,-0.807163,-0.811835,-0.794273,-0.827142,-0.82118,-0.823114,-0.82537,-0.802973,-0.811352,-0.824081,-0.815541,-0.818441,-0.835681,-0.808613,-0.850344,-0.822953,-0.852761,-0.837293,-0.876768,-0.844221,-0.858239,-0.880957,-0.862911,-0.903515,-0.868873,-0.896909,-0.914149,-0.872257,-0.903998,-0.885791,-0.897714,-0.865006,-0.906093,-0.876607,-0.911893,-0.908509,-0.866617,-0.899809,-0.884985,-0.876446,-0.908832,-0.890141,-0.884663,-0.888208,-0.861945,-0.869517,-0.88128,-0.865006,-0.862589,-0.843415,-0.84116,-0.833103,-0.822469,-0.807485,-0.815702,-0.819247,-0.793628,-0.776066,-0.816991,-0.774132,-0.802329,-0.799106,-0.787022,-0.778966,-0.802007,-0.788633,-0.782672,-0.791211,-0.782994,-0.778482,-0.804907,-0.770587,-0.81683,-0.764787,-0.773165,-0.756892,-0.79395,-0.779933,-0.763981,-0.766559,-0.747063,-0.763498,-0.768171,-0.736107,-0.744646,-0.742068,-0.746258,-0.729662,-0.769298,-0.759953,-0.771715,-0.743357,-0.73514,-0.757697,-0.721606,-0.730951,-0.753669,-0.738201,-0.726923,-0.706299,-0.701949,-0.713872,-0.703399,-0.679713,-0.662312,-0.679069,-0.622676,-0.663923,-0.634115,-0.626059,-0.62622,-0.605758,-0.587389,-0.604791,-0.56161,-0.560965,-0.581106,-0.565477,-0.559676,-0.562899,-0.542114,-0.55017,-0.571921,-0.540986,-0.56596,-0.552264,-0.546303,-0.580783,-0.548881,-0.553231,-0.580944,-0.53583,-0.547431,-0.572566,-0.555648,-0.571116,-0.562415,-0.528096,-0.577561,-0.599313,-0.559193,-0.594962,-0.562093,-0.595929,-0.579494,-0.562576,-0.609463,-0.594479,-0.575627,-0.598507,-0.601246,-0.599957,-0.588195,-0.594157,-0.59464,-0.598185,-0.576916,-0.591256,-0.576594,-0.585617,-0.581267,-0.569021,-0.614942,-0.587067,-0.592062,-0.613491,-0.587067,-0.614136,-0.602213,-0.606724,-0.615425,-0.635888,-0.60898,-0.628798,-0.646361,-0.617036,-0.655706,-0.618486,-0.612525,-0.64056,-0.641366,-0.633793,-0.660056,-0.668596,-0.647328,-0.677941,-0.645072,-0.655867,-0.648616,-0.62332,-0.66054,-0.669724,-0.6462,-0.644266,-0.659573,-0.638949,-0.6462,-0.681486,-0.622353,-0.636371,-0.645394,-0.614458,-0.61333,-0.638305,-0.614136,-0.653128,-0.624287,-0.622998,-0.637982,-0.613653,-0.596573,-0.64201,-0.62042,-0.644588,-0.639755,-0.650067,-0.633149,-0.656834,-0.635082,-0.631215,-0.664729,-0.616392,-0.664084,-0.64765,-0.636371,-0.62767,-0.659573,-0.632665,-0.656673,-0.648778,-0.615264,-0.6462,-0.65635,-0.624126,-0.661506,-0.630893,-0.6549,-0.646361,-0.644588,-0.641527,-0.644911,-0.613169,-0.633632,-0.659251,-0.617842,-0.645555,-0.618809,-0.599151,-0.625254,-0.62332,-0.610108,-0.599635,-0.60753,-0.604307,-0.60753,-0.596251,-0.601246,-0.608174,-0.5861,-0.617197,-0.593351,-0.588356,-0.597218,-0.617681,-0.590451,-0.589162,-0.632987,-0.585778,-0.625415,-0.596412,-0.604791,-0.605758,-0.616231,-0.586423,-0.62477,-0.603663,-0.598346,-0.605274,-0.595123,-0.579333,-0.600602,-0.581589,-0.587389,-0.59464,-0.594318,-0.575627,-0.589806,-0.59174,-0.601407,-0.62042,-0.560482,-0.579978,-0.608497,-0.580139,-0.567571,-0.581428,-0.5803,-0.585134,-0.580461,-0.572244,-0.616069,-0.590934,-0.580944,-0.576111,-0.579333,-0.563543,-0.572727,-0.564026,-0.549203,-0.588678,-0.562093,-0.546464,-0.592706,-0.546947,-0.54598,-0.575144,-0.582395,-0.566927,-0.602535,-0.598507,-0.594801,-0.586423,-0.605435,-0.590451,-0.591417,-0.575305,-0.596412,-0.601085,-0.600279,-0.589484,-0.59029,-0.60044,-0.605596,-0.59464,-0.574983,-0.629765,-0.583361,-0.589645,-0.562576,-0.596573,-0.596735,-0.612202,-0.584328,-0.605435,-0.586423,-0.599313,-0.615264,-0.588678,-0.553876,-0.58465,-0.577077,-0.590773,-0.572727,-0.587873,-0.569988,-0.574338,-0.601246,-0.556454,-0.586584,-0.582878,-0.572244,-0.580783,-0.5803,-0.56886,-0.605113,-0.566604,-0.575466,-0.594318,-0.569988,-0.598346,-0.579011,-0.585778,-0.603502,-0.572405,-0.588195,-0.59899,-0.615586,-0.577722,-0.59174,-0.593673,-0.57321,-0.606724,-0.596412,-0.608013,-0.602213,-0.594157,-0.606241,-0.596412,-0.58755,-0.60608,-0.616069,-0.583684,-0.609141,-0.639755,-0.564993,-0.640077,-0.614297,-0.610591,-0.628315,-0.641205,-0.597218,-0.617842,-0.617197,-0.600763,-0.608658,-0.591256,-0.611397,-0.633632,-0.622031,-0.641849,-0.635565,-0.638305,-0.625898,-0.631054,-0.640399,-0.636532,-0.670046,-0.628476,-0.652161,-0.655384,-0.63186,-0.644588,-0.638788,-0.665857,-0.652967,-0.64201,-0.620903,-0.650872,-0.64201,-0.639271,-0.654256,-0.62767,-0.626059,-0.639755,-0.634115,-0.637338,-0.636693,-0.601568,-0.589001,-0.663601,-0.575144,-0.608497,-0.629926,-0.607369,-0.630409,-0.637821,-0.621064,-0.611719,-0.660862,-0.622998,-0.631698,-0.645716,-0.630248,-0.666824,-0.646844,-0.647328,-0.645716,-0.669401,-0.673752,-0.672463,-0.64765,-0.66779,-0.684547,-0.683742,-0.671496,-0.691153,-0.648616,-0.692281,-0.650711,-0.682614,-0.670046,-0.675685,-0.643783,-0.648939,-0.676491,-0.632182,-0.669401,-0.618486,-0.639432,-0.622998,-0.631376,-0.620742,-0.607046,-0.598507,-0.581911,-0.625415,-0.579333,-0.599313,-0.562899,-0.57885,-0.598346,-0.58465,-0.595768,-0.608497,-0.598346,-0.580622,-0.588356,-0.616553,-0.606885,-0.603502,-0.613008,-0.61897,-0.643461,-0.622192,-0.635565,-0.64056,-0.643783,-0.621387,-0.629282,-0.640238,-0.622514,-0.649261,-0.624609,-0.653128,-0.638949,-0.641688,-0.630893,-0.664568,-0.622031,-0.630248,-0.639432,-0.652806,-0.660217,-0.633632,-0.638949,-0.643138,-0.632665,-0.616553,-0.640077,-0.638305,-0.590128,-0.630248,-0.626381,-0.627348,-0.620742,-0.620259,-0.590773,-0.642816,-0.613653,-0.572727,-0.622514,-0.602213,-0.596251,-0.642172,-0.574661,-0.623965,-0.604952,-0.613008,-0.613491,-0.600602,-0.614458,-0.620903,-0.603663,-0.613169,-0.627187,-0.626381,-0.607208,-0.620903,-0.596412,-0.607691,-0.59464,-0.636371,-0.625254,-0.622192,-0.613169,-0.632343,-0.661184,-0.647972,-0.651356,-0.643783,-0.676008,-0.675524,-0.671979,-0.649905,-0.655545,-0.673752,-0.643299,-0.643944,-0.634599,-0.602696,-0.615103,-0.584811,-0.562737,-0.55452,-0.556292,-0.495549,-0.509083,-0.46993,-0.466546,-0.45994,-0.422237,-0.458329,-0.433033,-0.411925,-0.448178,-0.452367,-0.44705,-0.490715,-0.498288,-0.497966,-0.550492,-0.56161,-0.580139,-0.650067,-0.619131,-0.653611,-0.684547,-0.69357,-0.722089,-0.761403,-0.762853,-0.798784,-0.833103,-0.834554,-0.831009,-0.881602,-0.865973,-0.889336,-0.906415,-0.920916,-0.924622,-0.924944,-0.938962,-0.939768,-0.94444,-0.957975,-0.965225,-0.972315,-0.977309,-0.991972,-0.985366,-1.005023,-1.007278,-0.999061,-1.017268,-1.009534,-1.019041,-1.023552,-1.020007,-1.005184,-1.020491,-1.010823,-1.016463,-1.00889,-1.003089,-1.014046,-0.994227,-0.996483,-0.97602,-0.976504,-0.972959,-0.956202,-0.912538,-0.952496,-0.918983,-0.906898,-0.916405,-0.871129,-0.862589,-0.875157,-0.827947,-0.864362,-0.811029,-0.790889,-0.79814,-0.756408,-0.710166,-0.738524,-0.666179,-0.632665,-0.66344,-0.570632,-0.527773,-0.499738,-0.462196,-0.424332,-0.394685,-0.330719,-0.277064,-0.235333,-0.205364,-0.158799,-0.099667,-0.020393,0.006837,0.075314,0.131225,0.166027,0.25803,0.326669,0.368561,0.394341,0.446868,0.48296,0.512445,0.547248,0.57045,0.588496,0.612021,0.636673,0.649402,0.670992,0.68356,0.693711,0.704023,0.706601,0.699512,0.690972,0.659553,0.630389,0.584468,0.518246,0.479093,0.388863,0.305078,0.210498,0.141698,0.073703,-0.006859,-0.110462,-0.195536,-0.259341,-0.344575,-0.447856,-0.486365,-0.576916,-0.651356,-0.728212,-0.826981,-0.860172,-0.941379,-1.004217,-1.035636,-1.0677,-1.082523,-1.097025,-1.107014,-1.10492,-1.117971,-1.132794,-1.109592,-1.121354,-1.140206,-1.137467,-1.147134,-1.154707,-1.14794,-1.158735,-1.163085,-1.14649,-1.156802,-1.134405,-1.116521,-1.11926,-1.112009,-1.089291,-1.074789,-1.0677,-1.032736,-1.010501,-1.004862,-0.944601,-0.956524,-0.924622,-0.873546,-0.881602,-0.836165,-0.822308,-0.827625,-0.791372,-0.792822,-0.773649,-0.763981,-0.728695,-0.715644,-0.701465,-0.699693,-0.69647,-0.685836,-0.688092,-0.658606,-0.68777,-0.645877,-0.648778,-0.682453,-0.664729,-0.677458,-0.662473,-0.691475,-0.727567,-0.7179,-0.719028,-0.777032,-0.775099,-0.788955,-0.817958,-0.81393,-0.842288,-0.891753,-0.827625,-0.888369,-0.896586,-0.905448,-0.917855,-0.916566,-0.917371,-0.948629,-0.942184,-0.929294,-0.955558,-0.937834,-0.94734,-0.979887,-0.941057,-0.946051,-0.93864,-0.919788,-0.910282,-0.916566,-0.895942,-0.87854,-0.871934,-0.831331,-0.845349,-0.799429,-0.823114,-0.819086,-0.767043,-0.764465,-0.742552,-0.734334,-0.745291,-0.717255,-0.684386,-0.70356,-0.699532,-0.676813,-0.705654,-0.697437,-0.68068,-0.696148,-0.69647,-0.695181,-0.699532,-0.750769,-0.666824,-0.750447,-0.742391,-0.707427,-0.75093,-0.737396,-0.738201,-0.738685,-0.759148,-0.748997,-0.749802,-0.783477,-0.760275,-0.75238,-0.764465,-0.757375,-0.765109,-0.769137,-0.734496,-0.729984,-0.721928,-0.737557,-0.7208,-0.688736,-0.66779,-0.670207,-0.651033,-0.634276,-0.655061,-0.61043,-0.612202,-0.606563,-0.59899,-0.59319,-0.609141,-0.595284,-0.596251,-0.583684,-0.588356,-0.583039,-0.596573,-0.5803,-0.589323,-0.59174,-0.572083,-0.590934,-0.601407,-0.562576,-0.619775,-0.571277,-0.604307,-0.621387,-0.615264,-0.584328,-0.620742,-0.60753,-0.613008,-0.650067,-0.586906,-0.636049,-0.629443,-0.600763,-0.627026,-0.609786,-0.638305,-0.627509,-0.62187,-0.626865,-0.605758,-0.619131,-0.597862,-0.623642,-0.63186,-0.63911,-0.643944,-0.646844,-0.618647,-0.678586,-0.654095,-0.684386,-0.705654,-0.685675,-0.682453,-0.733207,-0.698726,-0.726117,-0.739813,-0.689703,-0.756408,-0.742713,-0.736912,-0.741746,-0.717416,-0.724989,-0.721445,-0.716127,-0.719994,-0.701787,-0.68358,-0.67069,-0.637982,-0.650711,-0.637016,-0.626865,-0.616231,-0.587712,-0.583845,-0.532124,-0.538085,-0.519073,-0.518106,-0.513756,-0.437061,-0.453495,-0.445922,-0.458007,-0.425137,-0.432871,-0.409186,-0.41112,-0.399035,-0.395652,-0.383567,-0.369711,-0.397424,-0.376478,-0.386951,-0.350215,-0.343125,-0.344414,-0.329107,-0.332974,-0.341997,-0.326852,-0.348926,-0.362621,-0.319279,-0.337808,-0.381956,-0.337164,-0.374383,-0.384695,-0.389046,-0.421754,-0.402097,-0.392429,-0.434805,-0.463646,-0.446728,-0.476375,-0.462518,-0.435127,-0.500866,-0.442861,-0.457523,-0.431099,-0.418209,-0.393718,-0.421432,-0.364555,-0.378411,-0.374061,-0.34377,-0.326046,-0.329591,-0.312673,-0.315734,-0.319279,-0.337003,-0.312512,-0.289471,-0.321857,-0.34087,-0.350859,-0.333297,-0.379862,-0.35956,-0.397585,-0.400002,-0.418048,-0.426104,-0.45269,-0.474603,-0.473958,-0.500382,-0.499416,-0.491521,-0.537924,-0.531963,-0.543564,-0.587228,-0.562737,-0.569505,-0.598507,-0.586584,-0.551781,-0.605113,-0.539536,-0.542919,-0.566121,-0.540825,-0.520201,-0.526646,-0.505699,-0.475086,-0.492648,-0.465257,-0.468963,-0.470091,-0.425137,-0.472347,-0.439316,-0.429971,-0.437383,-0.430455,-0.445278,-0.422398,-0.417081,-0.397746,-0.413859,-0.387434,-0.435611,-0.406125,-0.42127,-0.403869,-0.41837,-0.426104,-0.389851,-0.404514,-0.419015,-0.446728,-0.461874,-0.452206,-0.458974,-0.45559,-0.478631,-0.46558,-0.483303,-0.449951,-0.472991,-0.472508,-0.46993,-0.493454,-0.485237,-0.449306,-0.489104,-0.491521,-0.475247,-0.495226,-0.494421,-0.467674,-0.473958,-0.498288,-0.510855,-0.52584,-0.465257,-0.481047,-0.485559,-0.47138,-0.432066,-0.457201,-0.405803,-0.439316,-0.419981,-0.379862,-0.442861,-0.433355,-0.397585,-0.424654,-0.421754,-0.422237,-0.487009,-0.512467,-0.477019,-0.535346,-0.548558,-0.534057,-0.573855,-0.557259,-0.587712,-0.634438,-0.614297,-0.634921,-0.666985,-0.666018,-0.67923,-0.713066,-0.671818,-0.69357,-0.752541,-0.681969,-0.744002,-0.701304,-0.741102,-0.757536,-0.744002,-0.712583,-0.732401,-0.704365,-0.713388,-0.728373,-0.677297,-0.671979,-0.675524,-0.625576,-0.651678,-0.609624,-0.600602,-0.583039,-0.580461,-0.550814,-0.539858,-0.504088,-0.514239,-0.502155,-0.481853,-0.483464,-0.475086,-0.496838,-0.441411,-0.469608,-0.461551,-0.457201,-0.483948,-0.456557,-0.443344,-0.504088,-0.48282,-0.510533,-0.512144,-0.490232,-0.479597,-0.529707,-0.497643,-0.516817,-0.53164,-0.485881,-0.548075,-0.529707,-0.55742,-0.537119,-0.546625,-0.53728,-0.561287,-0.580139,-0.529546,-0.553876,-0.579494,-0.529385,-0.586906,-0.552103,-0.567088,-0.57176,-0.578044,-0.5774,-0.5861,-0.576594,-0.570794,-0.595284,-0.538247,-0.582395,-0.558065,-0.536635,-0.555165,-0.537763,-0.551136,-0.551459,-0.535185,-0.538891,-0.536958,-0.547914,-0.520362,-0.546303,-0.52004,-0.53438,-0.526162,-0.533091,-0.539697,-0.510855,-0.526162,-0.52004,-0.531963,-0.507633,-0.512628,-0.515528,-0.506666,-0.498932,-0.477503,-0.498771,-0.459779,-0.490393,-0.431744,-0.454945,-0.453495,-0.40258,-0.450112,-0.404675,-0.415953,-0.375833,-0.396457,-0.379056,-0.36391,-0.386951,-0.365683,-0.390335,-0.362299,-0.378895,-0.433677,-0.39968,-0.410314,-0.4485,-0.417242,-0.436738,-0.449306,-0.445761,-0.47847,-0.493454,-0.467674,-0.49281,-0.488943,-0.521167,-0.540502,-0.525034,-0.527451,-0.558387,-0.545175,-0.541308,-0.576433,-0.538569,-0.53583,-0.529385,-0.510211,-0.544047,-0.527935,-0.532446,-0.52149,-0.507794,-0.492326,-0.506827,-0.481692,-0.440122,-0.480242,-0.464129,-0.460907,-0.434322,-0.421109,-0.414181,-0.398391,-0.398552,-0.401936,-0.389368,-0.381473,-0.408058,-0.431421,-0.392913,-0.415792,-0.451723,-0.439639,-0.490554,-0.465257,-0.493937,-0.52004,-0.55162,-0.520201,-0.554842,-0.574177,-0.575466,-0.596735,-0.585939,-0.605919,-0.604469,-0.572083,-0.581428,-0.601407,-0.559998,-0.548881,-0.578366,-0.531963,-0.540986,-0.537441,-0.485237,-0.475569,-0.498127,-0.478308,-0.449145,-0.440122,-0.40693,-0.414342,-0.382923,-0.41402,-0.353759,-0.366005,-0.368422,-0.339419,-0.363749,-0.35102,-0.374706,-0.353437,-0.364394,-0.367777,-0.386145,-0.382762,-0.347315,-0.381956,-0.381795,-0.38534,-0.421754,-0.413859,-0.418048,-0.410475,-0.443506,-0.426265,-0.441572,-0.447695,-0.455429,-0.454462,-0.440928,-0.452045,-0.430777,-0.400647,-0.431744,-0.371,-0.429004,-0.384051,-0.359399,-0.393557,-0.387434,-0.362299,-0.367938,-0.375995,-0.391301,-0.404514,-0.392913,-0.372611,-0.411281,-0.404997,-0.429166,-0.443183,-0.450756,-0.460585,-0.496032,-0.46993,-0.503605,-0.53728,-0.482175,-0.559515,-0.561287,-0.546947,-0.591417,-0.585939,-0.577722,-0.619936,-0.601246,-0.599635,-0.638143,-0.609302,-0.594479,-0.611075,-0.59464,-0.608335,-0.589323,-0.562576,-0.588517,-0.555003,-0.549525,-0.576916,-0.589806,-0.547108,-0.556454,-0.531318,-0.53583,-0.576272,-0.503766,-0.523745,-0.526162,-0.51585,-0.528096,-0.508439,-0.529385,-0.487976,-0.502638,-0.511178,-0.474603,-0.45994,-0.456557,-0.486526,-0.461068,-0.464452,-0.411442,-0.405319,-0.424332,-0.408219,-0.364233,-0.38824,-0.385179,-0.389368,-0.373739,-0.35666,-0.395652,-0.378411,-0.363427,-0.41402,-0.362944,-0.39678,-0.414181,-0.396941,-0.423043,-0.414987,-0.387757,-0.4456,-0.456879,-0.431905,-0.491843,-0.439477,-0.447856,-0.50715,-0.455429,-0.480886,-0.486687,-0.485881,-0.478147,-0.506344,-0.466707,-0.496999,-0.506344,-0.501994,-0.508439,-0.471219,-0.495388,-0.492487,-0.4427,-0.463646,-0.430455,-0.438994,-0.4485,-0.45414,-0.46993,-0.421754,-0.453495,-0.417887,-0.429327,-0.40403,-0.417565,-0.403063,-0.406447,-0.442217,-0.36955,-0.419498,-0.407414,-0.380023,-0.420626,-0.384051,-0.399358,-0.424332,-0.412248,-0.383406,-0.424332,-0.388562,-0.428038,-0.474441,-0.414342,-0.442539,-0.447695,-0.477503,-0.473152,-0.486526,-0.495871,-0.498932,-0.522295,-0.535185,-0.544208,-0.549686,-0.530835,-0.566604,-0.559998,-0.589323,-0.590773,-0.574177,-0.591579,-0.604307,-0.5774,-0.574016,-0.595768,-0.556454,-0.572566,-0.564993,-0.563382,-0.574338,-0.546303,-0.519878,-0.539858,-0.543564,-0.492326,-0.533413,-0.48427,-0.476214,-0.46993,-0.442055,-0.455268,-0.47283,-0.453495,-0.448823,-0.479597,-0.484592,-0.483625,-0.473958,-0.47992,-0.498932,-0.519073,-0.560321,-0.557581,-0.578205,-0.575305,-0.627026,-0.637177,-0.621709,-0.667951,-0.66199,-0.677619,-0.702271,-0.727406,-0.731273,-0.73079,-0.779771,-0.761564,-0.77236,-0.768976,-0.751091,-0.794111,-0.759148,-0.798462,-0.801362,-0.762853,-0.804262,-0.792339,-0.773004,-0.789117,-0.808613,-0.764465,-0.784605,-0.814574,-0.745291,-0.783316,-0.801684,-0.752058,-0.774777,-0.760759,-0.759631,-0.768976,-0.728373,-0.716289,-0.736751,-0.730951,-0.702593,-0.732079,-0.684225,-0.658606,-0.676974,-0.636854,-0.651194,-0.638305,-0.616553,-0.618647,-0.617358,-0.561126,-0.59899,-0.579655,-0.573855,-0.56886,-0.554198,-0.567249,-0.565638,-0.540341,-0.555003,-0.54308,-0.561126,-0.571277,-0.534218,-0.579494,-0.57321,-0.561932,-0.5774,-0.555003,-0.58175,-0.590773,-0.570955,-0.595768,-0.570471,-0.584006,-0.579333,-0.599796,-0.581267,-0.589484,-0.601085,-0.586906,-0.624287,-0.630409,-0.650067,-0.690025,-0.640077,-0.691637,-0.716127,-0.684386,-0.694215,-0.724667,-0.678586,-0.729662,-0.729178,-0.701304,-0.73514,-0.715966,-0.699854,-0.71645,-0.676169,-0.666018,-0.650389,-0.577077,-0.612525,-0.597218,-0.535024,-0.525034,-0.52439,-0.45124,-0.483625,-0.443344,-0.396618,-0.376961,-0.377767,-0.310095,-0.305744,-0.266269,-0.252735,-0.236139,-0.164116,-0.185546,-0.132214,-0.064219,-0.067764,-0.03715,-0.000253,0.032939,0.054368,0.118657,0.117046,0.152332,0.21791,0.197286,0.27237,0.314745,0.343587,0.41142,0.447512,0.485054,0.525013,0.542737,0.575445,0.592686,0.616371,0.638284,0.653752,0.66922,0.677437,0.683077,0.693389,0.689522,0.68211,0.673732,0.65198,0.627005,0.606059,0.551438,0.519213,0.455085,0.3713,0.331986,0.279781,0.170378,0.093199,0.036322,-0.054713,-0.116585,-0.227922,-0.27642,-0.347959,-0.436577,-0.500221,-0.549847,-0.659895,-0.67923,-0.761564,-0.809257,-0.853244,-0.893042,-0.920916,-0.936223,-0.972798,-0.981499,-0.996644,-1.016301,-1.034186,-1.039342,-1.042081,-1.057388,-1.039342,-1.075917,-1.069956,-1.088646,-1.074628,-1.076884,-1.085907,-1.08059,-1.076723,-1.070439,-1.085907,-1.083812,-1.062866,-1.073017,-1.058355,-1.059483,-1.058355,-1.044498,-1.028869,-1.03467,-1.036281,-0.989394,-1.019363,-0.989071,-1.007278,-0.987782,-0.963614,-0.96877,-0.991649,-0.967159,-0.960391,-0.980371,-0.942829,-0.968448,-0.956686,-0.914149,-0.963775,-0.929778,-0.92865,-0.90996,-0.928811,-0.870323,-0.908832,-0.953624,-0.900453,-0.912376,-0.924783,-0.895942,-0.915921,-0.879346,-0.888208,-0.885308,-0.905932,-0.886758,-0.914632,-0.858078,-0.908509,-0.901903,-0.864362,-0.912215,-0.879991,-0.89997,-0.889013,-0.894492,-0.866617,-0.915921,-0.896747,-0.878379,-0.890464,-0.897231,-0.884502,-0.898198,-0.88128,-0.892075,-0.898036,-0.888208,-0.894008,-0.882407,-0.877896,-0.88998,-0.90142,-0.876285,-0.894653,-0.876285,-0.885791,-0.885469,-0.888369,-0.869679,-0.887241,-0.873384,-0.858078,-0.87854,-0.849055,-0.865489,-0.873062,-0.864845,-0.858883,-0.858561,-0.836809,-0.827625,-0.853244,-0.828109,-0.805712,-0.879185,-0.812963,-0.856466,-0.848249,-0.840676,-0.838259,-0.876768,-0.834392,-0.842771,-0.850505,-0.808451,-0.857111,-0.840193,-0.826336,-0.854694,-0.820214,-0.819891,-0.84696,-0.822308,-0.842288,-0.831814,-0.818602,-0.818925,-0.823275,-0.780416,-0.799751,-0.797978,-0.799267,-0.790889,-0.758342,-0.782027,-0.777193,-0.778482,-0.765109,-0.74513,-0.725956,-0.717094,-0.728051,-0.698404,-0.714516,-0.689703,-0.678263,-0.683419,-0.692442,-0.662151,-0.683742,-0.715322,-0.686481,-0.661345,-0.698404,-0.661829,-0.703721,-0.693248,-0.694053,-0.665212,-0.684225,-0.681808,-0.663601,-0.693409,-0.652645,-0.685031,-0.671335,-0.652967,-0.662312,-0.642977,-0.655223,-0.675202,-0.649905,-0.61897,-0.635565,-0.622676,-0.629282,-0.646361,-0.59174,-0.607369,-0.62332,-0.599635,-0.58755,-0.57321,-0.576433,-0.551298,-0.551459,-0.542597,-0.493293,-0.517945,-0.452367,-0.436416,-0.443989,-0.418531,-0.413698,-0.414987,-0.378411,-0.378411,-0.376156,-0.371483,-0.366649,-0.413053,-0.375028,-0.397424,-0.427715,-0.422882,-0.443667,-0.472186,-0.481047,-0.508922,-0.564671,-0.528257,-0.590612,-0.60753,-0.620742,-0.661023,-0.686158,-0.690992,-0.741424,-0.746258,-0.726923,-0.773971,-0.809418,-0.755119,-0.828109,-0.793467,-0.830364,-0.820536,-0.800556,-0.819408,-0.836487,-0.816991,-0.783155,-0.800556,-0.768332,-0.788955,-0.769943,-0.761726,-0.737557,-0.720639,-0.716127,-0.672463,-0.731273,-0.642816,-0.629604,-0.644427,-0.617197,-0.618809,-0.59029,-0.590773,-0.589001,-0.576916,-0.559837,-0.581106,-0.555003,-0.536152,-0.582556,-0.526646,-0.518751,-0.553392,-0.533896,-0.523101,-0.536474,-0.537119,-0.526646,-0.519234,-0.520362,-0.502477,-0.538247,-0.512306,-0.521973,-0.545175,-0.538247,-0.531479,-0.553231,-0.530674,-0.539536,-0.59029,-0.512306,-0.560965,-0.559354,-0.52874,-0.552909,-0.544208,-0.526484,-0.53164,-0.53019,-0.521973,-0.512467,-0.517623,-0.474441,-0.514239,-0.471702,-0.502799,-0.492648,-0.4456,-0.478147,-0.477342,-0.453495,-0.444472,-0.451401,-0.450273,-0.449145,-0.461874,-0.416437,-0.456557,-0.43835,-0.435127,-0.43271,-0.429971,-0.420143,-0.446084,-0.47428,-0.415953,-0.42546,-0.466707,-0.404836,-0.447695,-0.421754,-0.424815,-0.434644,-0.438672,-0.444956,-0.461713,-0.417242,-0.404514,-0.470413,-0.414987,-0.45559,-0.449628,-0.455107,-0.484753,-0.472347,-0.433194,-0.466869,-0.45849,-0.476214,-0.496032,-0.451562,-0.467352,-0.459296,-0.463968,-0.484914,-0.478147,-0.478953,-0.47573,-0.486526,-0.480725,-0.47992,-0.512306,-0.498127,-0.519395,-0.502638,-0.49426,-0.486848,-0.529062,-0.513111,-0.513433,-0.512789,-0.500544,-0.51295,-0.490393,-0.497966,-0.505216,-0.479275,-0.487654,-0.487815,-0.47573,-0.459779,-0.486203,-0.451401,-0.46993,-0.480886,-0.427877,-0.463485,-0.449951,-0.429649,-0.429004,-0.452206,-0.408219,-0.419659,-0.44415,-0.404836,-0.43416,-0.429649,-0.418209,-0.452045,-0.410153,-0.413698,-0.439477,-0.430455,-0.419498,-0.443344,-0.407897,-0.407253,-0.475569,-0.403386,-0.423687,-0.454945,-0.466385,-0.449467,-0.495549,-0.451884,-0.443022,-0.472025,-0.453979,-0.454301,-0.452529,-0.426749,-0.471541,-0.44415,-0.418692,-0.444956,-0.474925,-0.424493,-0.460262,-0.424332,-0.425943,-0.436577,-0.438994,-0.427393,-0.433838,-0.426749,-0.453979,-0.408703,-0.441733,-0.446567,-0.46139,-0.435449,-0.433838,-0.466385,-0.40967,-0.45124,-0.442217,-0.454623,-0.440766,-0.453012,-0.432388,-0.435127,-0.457201,-0.459296,-0.433033,-0.447373,-0.481531,-0.455107,-0.455268,-0.483948,-0.478308,-0.463163,-0.521651,-0.489426,-0.520845,-0.513917,-0.514561,-0.502316,-0.53583,-0.506988,-0.527935,-0.503121,-0.523101,-0.517945,-0.505538,-0.522618,-0.550975,-0.552748,-0.504894,-0.502638,-0.502155,-0.503444,-0.508439,-0.472508,-0.484109,-0.513917,-0.506505,-0.482175,-0.498449,-0.490393,-0.462196,-0.480725,-0.454945,-0.45124,-0.454945,-0.46993,-0.427393,-0.446889,-0.481531,-0.437061,-0.467352,-0.435611,-0.425782,-0.422237,-0.451884,-0.454462,-0.443989,-0.447373,-0.395491,-0.448017,-0.433033,-0.406286,-0.441572,-0.425621,-0.417726,-0.428682,-0.425621,-0.419659,-0.420626,-0.416437,-0.394846,-0.403063,-0.386629,-0.363105,-0.437383,-0.382762,-0.420143,-0.402097,-0.417242,-0.402741,-0.418692,-0.421432,-0.419015,-0.415953,-0.391946,-0.431905,-0.405803,-0.402902,-0.40258,-0.372289,-0.404675,-0.394846,-0.38679,-0.388562,-0.40548,-0.361977,-0.371966,-0.399196,-0.355854,-0.388723,-0.3768,-0.347959,-0.388723,-0.363266,-0.351826,-0.343609,-0.369711,-0.358593,-0.374061,-0.384534,-0.317829,-0.388885,-0.351987,-0.339742,-0.364394,-0.379862,-0.339581,-0.366166,-0.362782,-0.356015,-0.371161,-0.343125,-0.357465,-0.356982,-0.361493,-0.363749,-0.33668,-0.341353,-0.355854,-0.35956,-0.36246,-0.365683,-0.372933,-0.337486,-0.377284,-0.35956,-0.361655,-0.359238,-0.378089,-0.376317,-0.366005,-0.380667,-0.379539,-0.385984,-0.387273,-0.360043,-0.357626,-0.379056,-0.391624,-0.375672,-0.403708,-0.366488,-0.38534,-0.3739,-0.379539,-0.431744,-0.360527,-0.395652,-0.41692,-0.376639,-0.395813,-0.416598,-0.37825,-0.410636,-0.419337,-0.378895,-0.403547,-0.416437,-0.401774,-0.430938,-0.419981,-0.415148,-0.409347,-0.420626,-0.399841,-0.43271,-0.406769,-0.406769,-0.460585,-0.395813,-0.427232,-0.441089,-0.392752,-0.420465,-0.424654,-0.41547,-0.442861,-0.43416,-0.398391,-0.449306,-0.437061,-0.405319,-0.450917,-0.43416,-0.429971,-0.449145,-0.447856,-0.434966,-0.471058,-0.447211,-0.463968,-0.501349,-0.438833,-0.475086,-0.459135,-0.468963,-0.486687,-0.469447,-0.476697,-0.490715,-0.462035,-0.461874,-0.465902,-0.490554,-0.472991,-0.477664,-0.443183,-0.486687,-0.47992,-0.474119,-0.488137,-0.482336,-0.440605,-0.482175,-0.506505,-0.477019,-0.456557,-0.490876,-0.470091,-0.483142,-0.491198,-0.475247,-0.481047,-0.494421,-0.46284,-0.473958,-0.501188,-0.446567,-0.495065,-0.483787,-0.474764,-0.508277,-0.501188,-0.485881,-0.519395,-0.499577,-0.500382,-0.520201,-0.511017,-0.519717,-0.54598,-0.470574,-0.5144,-0.506988,-0.531479,-0.503444,-0.52729,-0.499577,-0.526646,-0.515045,-0.505699,-0.506344,-0.494904,-0.493615,-0.485398,-0.461874,-0.493454,-0.466063,-0.453979,-0.48427,-0.457201,-0.465257,-0.450112,-0.454301,-0.4485,-0.425299,-0.419337,-0.436416,-0.419176,-0.414503,-0.395329,-0.413537,-0.41257,-0.414342,-0.39678,-0.421915,-0.382923,-0.40967,-0.407092,-0.385179,-0.387112,-0.409508,-0.405964,-0.389851,-0.397263,-0.375672,-0.443989,-0.397746,-0.40693,-0.41402,-0.394202,-0.402902,-0.401452,-0.411603,-0.372933,-0.423526,-0.40258,-0.37535,-0.449306,-0.403869,-0.418209,-0.407092,-0.392268,-0.428843,-0.422721,-0.407092,-0.42127,-0.43126,-0.381634,-0.423204,-0.383406,-0.389207,-0.429004,-0.400808,-0.410153,-0.400163,-0.381956,-0.376317,-0.400647,-0.375189,-0.372289,-0.408542,-0.368744,-0.393074,-0.405803,-0.3739,-0.386468,-0.380023,-0.354243,-0.38534,-0.397585,-0.395168,-0.367777,-0.393718,-0.365522,-0.42546,-0.392913,-0.403869,-0.374222,-0.413698,-0.383245,-0.41692,-0.435288,-0.413698,-0.444311,-0.448017,-0.419176,-0.431099,-0.442861,-0.436255,-0.476214,-0.456879,-0.452851,-0.486365,-0.46284,-0.489265,-0.50296,-0.456718,-0.487009,-0.507633,-0.517784,-0.482175,-0.518428,-0.499738,-0.501027,-0.507472,-0.476858,-0.511339,-0.477342,-0.499738,-0.507633,-0.491521,-0.510855,-0.516495,-0.51295,-0.517623,-0.538569,-0.547753,-0.531157,-0.544691,-0.547431,-0.563704,-0.543725,-0.553553,-0.568216,-0.547269,-0.580944,-0.564349,-0.583039,-0.583522,-0.564188,-0.574983,-0.587067,-0.594801,-0.584811,-0.61333,-0.576594,-0.60608,-0.579655,-0.600118,-0.616069,-0.595284,-0.62332,-0.611719,-0.632021,-0.644427,-0.607046,-0.619614,-0.625415,-0.611397,-0.641527,-0.649744,-0.601246,-0.627509,-0.625254,-0.602857,-0.62332,-0.610108,-0.637338,-0.609624,-0.612525,-0.617681,-0.61478,-0.645072,-0.618486,-0.637016,-0.630893,-0.630732,-0.631215,-0.669401,-0.630893,-0.643299,-0.664729,-0.659895,-0.68358,-0.689542,-0.650711,-0.694376,-0.66344,-0.649744,-0.651194,-0.677941,-0.671657,-0.692603,-0.686964,-0.683097,-0.712905,-0.691153,-0.70066,-0.72515,-0.713388,-0.730467,-0.732079,-0.71226,-0.730145,-0.731918,-0.7237,-0.716611,-0.744808,-0.730951,-0.740779,-0.746902,-0.718544,-0.771715,-0.763015,-0.74368,-0.755764,-0.760114,-0.746419,-0.784927,-0.767204,-0.725312,-0.788311,-0.739974,-0.755119,-0.771393,-0.743035,-0.741424,-0.754153,-0.724345,-0.748836,-0.746902,-0.707427,-0.73224,-0.703399,-0.689864,-0.667629,-0.666018,-0.667146,-0.643138,-0.621548,-0.62187,-0.634921,-0.600763,-0.558548,-0.585617,-0.555003,-0.5115,-0.50441,-0.463807,-0.431099,-0.453334,-0.384212,-0.363266,-0.360849,-0.289149,-0.300427,-0.24484,-0.200692,-0.179906,-0.147359,-0.107401,-0.05568,-0.002831,0.034872,0.056785,0.137186,0.151687,0.209692,0.283648,0.331019,0.346487,0.413354,0.473614,0.497461,0.553532,0.577379,0.609443,0.643762,0.657136,0.684044,0.703701,0.717558,0.738343,0.742532,0.748977,0.752844,0.747849,0.734959,0.721908,0.686783,0.635867,0.605898,0.526624,0.444773,0.407553,0.324252,0.264313,0.19503,0.101578,0.005225,-0.048107,-0.139464,-0.202464,-0.298333,-0.395974,-0.440605,-0.513433,-0.5803,-0.677458,-0.719189,-0.776227,-0.835359,-0.872901,-0.89997,-0.938317,-0.956041,-0.972153,-1.0018,-0.997933,-0.998739,-1.021296,-1.037086,-1.036281,-1.056582,-1.064961,-1.063027,-1.075434,-1.076884,-1.07914,-1.079301,-1.074628,-1.090902,-1.089935,-1.08639,-1.086229,-1.069633,-1.080107,-1.071728,-1.071889,-1.053682,-1.04901,-1.046432,-1.020974,-1.027097,-0.996644,-0.995516,-0.992294,-0.951691,-0.976826,-0.956041,-0.927361,-0.939445,-0.929456,-0.905126,-0.908187,-0.87564,-0.866617,-0.893686,-0.846638,-0.878702,-0.860011,-0.860495,-0.861139,-0.840837,-0.843415,-0.849055,-0.833748,-0.816669,-0.846799,-0.838421,-0.818602,-0.824725,-0.80974,-0.809579,-0.777193,-0.778321,-0.773488,-0.7896,-0.749963,-0.766559,-0.74948,-0.719511,-0.734173,-0.757214,-0.692764,-0.726117,-0.712905,-0.679069,-0.696954,-0.703238,-0.654739,-0.676491,-0.693892,-0.62912,-0.680841,-0.673752,-0.670207,-0.697276,-0.645233,-0.656995,-0.659251,-0.631698,-0.633149,-0.657478,-0.637982,-0.611075,-0.649583,-0.597379,-0.634438,-0.611397,-0.576916,-0.63621,-0.618325,-0.57885,-0.572083,-0.576594,-0.563543,-0.539374,-0.540663,-0.540019,-0.50441,-0.494099,-0.485881,-0.457523,-0.439639,-0.453334,-0.394685,-0.413859,-0.403869,-0.357949,-0.376639,-0.358754,-0.361171,-0.356337,-0.330396,-0.330074,-0.352309,-0.302522,-0.337003,-0.335875,-0.32234,-0.351181,-0.351504,-0.318312,-0.349087,-0.344253,-0.324757,-0.351504,-0.314767,-0.352148,-0.382923,-0.31654,-0.388562,-0.3768,-0.367777,-0.414664,-0.41402,-0.376478,-0.380023,-0.407575,-0.375511,-0.384051,-0.362299,-0.387112,-0.409186,-0.330719,-0.373578,-0.369227,-0.366166,-0.353759,-0.350859,-0.358754,-0.350859,-0.350698,-0.355371,-0.350215,-0.347798,-0.353437,-0.357304,-0.346026,-0.355693,-0.378573,-0.381956,-0.396618,-0.405641,-0.40967,-0.408381,-0.41547,-0.458329,-0.4398,-0.470736,-0.513756,-0.506022,-0.529707,-0.55597,-0.540019,-0.554198,-0.551459,-0.54598,-0.583361,-0.57176,-0.560159,-0.592384,-0.592062,-0.56741,-0.60898,-0.593995,-0.581267,-0.618809,-0.599151,-0.618003,-0.620259,-0.644911,-0.637499,-0.633632,-0.65055,-0.647972,-0.643944,-0.640399,-0.638949,-0.667468,-0.605919,-0.653128,-0.636371,-0.660056,-0.636693,-0.65055,-0.628637,-0.65055,-0.626543,-0.593995,-0.660701,-0.58175,-0.590451,-0.612686,-0.590773,-0.574177,-0.576433,-0.547914,-0.528096,-0.547431,-0.540825,-0.504894,-0.519395,-0.473958,-0.490715,-0.479759,-0.459135,-0.440766,-0.444633,-0.41257,-0.422398,-0.41257,-0.383567,-0.441411,-0.416598,-0.400969,-0.437544,-0.409186,-0.392107,-0.4456,-0.417081,-0.434322,-0.451078,-0.422559,-0.434322,-0.470574,-0.427877,-0.430616,-0.42127,-0.408219,-0.453979,-0.413053,-0.433999,-0.458329,-0.438027,-0.466546,-0.433677,-0.46558,-0.433516,-0.465418,-0.444633,-0.47283,-0.464452,-0.48572,-0.477181,-0.467996,-0.479759,-0.491198,-0.496193,-0.512628,-0.484753,-0.497804,-0.481531,-0.463485,-0.46703,-0.480242,-0.431099,-0.44415,-0.408703,-0.383567,-0.401936,-0.33233,-0.286571,-0.318312,-0.263691,-0.235333,-0.197308,-0.147359,-0.170078,-0.144137,-0.088227,-0.097572,-0.100311,-0.033767,-0.090966,-0.047946,-0.041984,-0.037956,-0.035378,-0.040695,-0.026516,-0.046496,-0.059547,-0.051974,-0.08146,-0.067442,-0.087582,-0.125124,-0.139464,-0.139948,-0.180712,-0.168467,-0.20327,-0.229049,-0.234366,-0.283026,-0.270781,-0.288343,-0.329591,-0.325402,-0.324274,-0.357626,-0.373417,-0.370677,-0.426265,-0.38679,-0.400647,-0.429327,-0.423526,-0.461874,-0.465418,-0.453979,-0.481209,-0.477019,-0.493293,-0.47992,-0.530029,-0.503927,-0.538891,-0.514722,-0.513272,-0.524229,-0.515206,-0.517623,-0.5086,-0.503927,-0.48717,-0.479597,-0.467191,-0.457201,-0.492648,-0.444956,-0.459618,-0.463646,-0.446084,-0.437061,-0.416437,-0.433194,-0.436416,-0.43835,-0.410475,-0.440766,-0.463002,-0.428199,-0.424332,-0.435127,-0.453012,-0.423848,-0.448339,-0.440122,-0.471702,-0.432066,-0.477825,-0.475086,-0.454784,-0.45414,-0.477986,-0.459618,-0.441572,-0.4485,-0.483303,-0.430293,-0.506988,-0.478792,-0.433033,-0.508761,-0.463324,-0.46993,-0.492326,-0.449467,-0.452851,-0.473152,-0.437544,-0.460907,-0.460907,-0.393074,-0.423204,-0.390335,-0.367616,-0.387596,-0.345381,-0.36536,-0.352309,-0.324757,-0.304455,-0.356982,-0.292693,-0.295433,-0.33813,-0.312834,-0.357465,-0.36391,-0.34377,-0.389529,-0.388562,-0.417242,-0.427071,-0.439961,-0.456557,-0.453818,-0.508116,-0.504249,-0.554037,-0.568377,-0.54163,-0.58755,-0.612686,-0.632021,-0.589162,-0.632665,-0.637499,-0.635565,-0.684547,-0.62622,-0.657801,-0.663279,-0.651839,-0.652483,-0.674557,-0.635565,-0.667629,-0.648455,-0.620742,-0.669724,-0.654095,-0.662473,-0.656189,-0.637821,-0.629926,-0.642333,-0.622514,-0.624931,-0.609141,-0.600602,-0.599474,-0.62332,-0.548075,-0.570149,-0.554842,-0.528579,-0.546947,-0.52149,-0.514239,-0.495226,-0.513917,-0.499577,-0.490232,-0.502477,-0.488781,-0.511178,-0.459457,-0.505377,-0.483787,-0.501994,-0.537441,-0.501349,-0.515689,-0.516978,-0.540341,-0.527612,-0.553714,-0.575466,-0.566121,-0.559837,-0.584811,-0.577883,-0.578044,-0.579817,-0.577722,-0.558548,-0.604469,-0.547914,-0.57031,-0.570955,-0.54163,-0.537924,-0.546786,-0.516011,-0.537119,-0.536152,-0.494582,-0.523745,-0.496032,-0.476053,-0.496354,-0.433838,-0.449467,-0.449628,-0.432388,-0.423687,-0.404836,-0.383245,-0.378734,-0.392429,-0.359721,-0.378573,-0.323307,-0.359077,-0.357788,-0.334908,-0.324274,-0.328302,-0.301233,-0.270619,-0.303972,-0.249351,-0.279642,-0.254346,-0.268686,-0.269975,-0.268203,-0.260791,-0.26643,-0.292371,-0.25918,-0.262402,-0.313962,-0.263369,-0.314123,-0.361493,-0.318473,-0.373094,-0.379217,-0.394846,-0.428843,-0.414503,-0.419498,-0.473797,-0.47283,-0.458812,-0.521973,-0.476053,-0.513272,-0.553392,-0.53438,-0.534863,-0.556292,-0.5086,-0.537119,-0.560159,-0.538085,-0.544208,-0.559837,-0.554359,-0.542597,-0.55162,-0.570632,-0.540502,-0.546625,-0.51005,-0.550814,-0.564993,-0.525034,-0.547431,-0.574338,-0.54308,-0.564026,-0.552264,-0.549203,-0.544691,-0.559998,-0.549203,-0.602696,-0.555809,-0.527451,-0.54018,-0.537763,-0.535024,-0.541952,-0.529385,-0.531802,-0.548075,-0.524712,-0.478147,-0.526162,-0.488943,-0.49281,-0.50441,-0.443344,-0.477342,-0.498288,-0.479275,-0.494421,-0.46703,-0.465096,-0.48717,-0.477986,-0.476214,-0.50151,-0.47138,-0.511178,-0.484914,-0.470413,-0.481047,-0.533091,-0.495226,-0.506183,-0.563382,-0.521973,-0.547431,-0.532446,-0.523745,-0.52729,-0.537763,-0.548236,-0.537602,-0.521651,-0.547753,-0.551942,-0.562737,-0.54308,-0.555165,-0.515206,-0.53873,-0.536635,-0.569343,-0.544047,-0.51295,-0.550009,-0.528096,-0.541791,-0.540663,-0.539052,-0.516978,-0.544047,-0.506183,-0.52874,-0.507955,-0.514561,-0.50715,-0.490393,-0.496838,-0.532768,-0.473636,-0.482981,-0.518589,-0.458651,-0.492004,-0.476053,-0.495871,-0.492487,-0.497966,-0.458168,-0.478308,-0.484753,-0.482498,-0.485076,-0.468319,-0.487009,-0.500544,-0.465096,-0.478631,-0.491843,-0.47283,-0.48717,-0.487976,-0.467352,-0.492648,-0.497643,-0.486526,-0.513111,-0.477986,-0.500705,-0.51005,-0.496838,-0.50006,-0.513272,-0.527129,-0.502155,-0.509889,-0.512467,-0.512144,-0.504088,-0.542919,-0.522618,-0.520362,-0.546786,-0.517139,-0.563704,-0.525034,-0.509728,-0.560482,-0.52149,-0.548236,-0.504894,-0.506022,-0.504894,-0.52004,-0.473314,-0.473314,-0.522295,-0.46558,-0.502316,-0.485237,-0.466224,-0.505861,-0.483303,-0.465257,-0.481047,-0.470252,-0.44415,-0.471058,-0.443989,-0.465418,-0.490232,-0.436738,-0.432388,-0.460907,-0.446084,-0.448178,-0.438833,-0.432549,-0.444956,-0.442378,-0.440444,-0.427554,-0.439155,-0.478792,-0.446567,-0.449789,-0.466385,-0.449145,-0.464613,-0.474603,-0.440928,-0.462035,-0.442861,-0.482981,-0.439155,-0.46558,-0.482981,-0.483142,-0.447695,-0.476375,-0.45849,-0.45414,-0.492487,-0.439961,-0.469285,-0.486687,-0.429327,-0.480564,-0.468963,-0.437383,-0.454301,-0.460585,-0.435449,-0.4427,-0.466707,-0.421593,-0.455429,-0.436255,-0.414826,-0.448178,-0.450756,-0.424815,-0.450273,-0.406286,-0.423687,-0.455751,-0.406447,-0.417403,-0.443022,-0.412731,-0.441733,-0.422398,-0.414664,-0.411603,-0.41547,-0.393557,-0.442055,-0.415148,-0.426588,-0.437061,-0.384695,-0.392429,-0.414826,-0.361171,-0.381634,-0.378895,-0.361171,-0.348442,-0.337003,-0.314929,-0.336358,-0.330396,-0.282381,-0.338614,-0.306872,-0.334102,-0.344737,-0.331202,-0.332169,-0.341997,-0.356982,-0.337808,-0.375511,-0.368422,-0.356337,-0.414664,-0.41402,-0.410797,-0.429649,-0.478953,-0.454623,-0.48717,-0.481209,-0.477019,-0.538085,-0.525034,-0.56306,-0.576111,-0.593995,-0.61478,-0.638627,-0.630087,-0.630248,-0.700982,-0.694537,-0.699854,-0.727084,-0.740296,-0.770587,-0.762531,-0.756247,-0.792017,-0.792661,-0.793467,-0.816508,-0.799429,-0.810063,-0.80539,-0.812802,-0.811835,-0.808935,-0.802812,-0.800718,-0.787828,-0.781383,-0.764948,-0.785572,-0.771554,-0.761081,-0.753025,-0.738363,-0.738524,-0.72515,-0.72515,-0.69502,-0.739168,-0.715805,-0.659573,-0.724023,-0.643138,-0.652806,-0.675685,-0.671979,-0.641688,-0.64201,-0.622837,-0.656673,-0.644105,-0.605274,-0.614458,-0.613814,-0.582717,-0.601891,-0.583845,-0.56306,-0.582395,-0.566121,-0.559515,-0.560965,-0.580622,-0.55162,-0.584973,-0.531157,-0.552264,-0.553553,-0.558065,-0.574177,-0.566443,-0.576433,-0.58175,-0.555003,-0.584489,-0.575788,-0.575788,-0.576594,-0.596735,-0.602213,-0.608497,-0.612041,-0.616714,-0.615103,-0.629604,-0.62622,-0.639594,-0.616392,-0.647328,-0.612525,-0.639432,-0.614136,-0.599957,-0.618325,-0.631698,-0.584489,-0.600118,-0.604952,-0.583684,-0.628959,-0.60753,-0.62332,-0.639271,-0.626543,-0.632504,-0.660056,-0.649905,-0.637338,-0.681808,-0.685353,-0.658123,-0.69792,-0.651517,-0.698082,-0.666985,-0.685031,-0.692442,-0.686803,-0.682291,-0.704204,-0.684547,-0.672946,-0.681325,-0.667629,-0.663601,-0.652161,-0.644266,-0.6491,-0.643944,-0.62187,-0.604952,-0.585617,-0.559354,-0.528579,-0.532285,-0.476375,-0.454784,-0.453495,-0.414987,-0.357465,-0.324435,-0.283187,-0.247095,-0.215032,