 14:55:59.30823,-0.328302,-0.324274,-0.328785,-0.33378,-0.334425,-0.324274,-0.363266,-0.330719,-0.344414,-0.359399,-0.379378,-0.332169,-0.343448,-0.384534,-0.358432,-0.386307,-0.358915,-0.374061,-0.371161,-0.370033,-0.382762,-0.356982,-0.403547,-0.353921,-0.403547,-0.390012,-0.400002,-0.385018,-0.409992,-0.398552,-0.386307,-0.410153,-0.381473,-0.42836,-0.415148,-0.404997,-0.437222,-0.434644,-0.417565,-0.426265,-0.442055,-0.414664,-0.452851,-0.436577,-0.47138,-0.445278,-0.439477,-0.447856,-0.456073,-0.478147,-0.458168,-0.47992,-0.487815,-0.494421,-0.496677,-0.483787,-0.498932,-0.487009,-0.521973,-0.477825,-0.511339,-0.495549,-0.491037,-0.516656,-0.466063,-0.502799,-0.508277,-0.465902,-0.480564,-0.455912,-0.43835,-0.446567,-0.441411,-0.411442,-0.417403,-0.392429,-0.421109,-0.387757,-0.345864,-0.375833,-0.342964,-0.337325,-0.347798,-0.304617,-0.288504,-0.297205,-0.245806,-0.259502,-0.21197,-0.188768,-0.217448,-0.142526,-0.149293,-0.101278,-0.074853,-0.066314,-0.025549,0.001036,0.052435,0.064519,0.114468,0.121396,0.176501,0.252712,0.258513,0.320063,0.350998,0.388863,0.417865,0.462658,0.490371,0.517601,0.546926,0.564489,0.596553,0.617177,0.639573,0.669059,0.68501,0.70209,0.723841,0.733026,0.747043,0.747688,0.753166,0.755905,0.740598,0.721425,0.704184,0.684044,0.625394,0.596553,0.527108,0.498589,0.459919,0.339559,0.291221,0.254485,0.148626,0.106573,0.045506,-0.075659,-0.124802,-0.186513,-0.289471,-0.290599,-0.341192,-0.462357,-0.47138,-0.564349,-0.60898,-0.630732,-0.69792,-0.733045,-0.771715,-0.837776,-0.835681,-0.870323,-0.895458,-0.887241,-0.899809,-0.920272,-0.909154,-0.928972,-0.936384,-0.933161,-0.928489,-0.945246,-0.924622,-0.908187,-0.925105,-0.901742,-0.923333,-0.909798,-0.890464,-0.894331,-0.895297,-0.883535,-0.897231,-0.871773,-0.872095,-0.89707,-0.869517,-0.877574,-0.888047,-0.872257,-0.889336,-0.883213,-0.876607,-0.896425,-0.888208,-0.893847,-0.903515,-0.907543,-0.91286,-0.923172,-0.906093,-0.935739,-0.919144,-0.941379,-0.949918,-0.955235,-0.949435,-0.963775,-0.974248,-0.969575,-0.987138,-0.990844,-1.003573,-1.00325,-1.010501,-0.998256,-1.014851,-1.013401,-1.019685,-1.02468,-1.021296,-1.024841,-1.034186,-1.031447,-1.034992,-1.043531,-1.039826,-1.05046,-1.054649,-1.060127,-1.061577,-1.058677,-1.068828,-1.078979,-1.074306,-1.071889,-1.072211,-1.079301,-1.084779,-1.100408,-1.075273,-1.101375,-1.111203,-1.084779,-1.11507,-1.105725,-1.107336,-1.116037,-1.111848,-1.090257,-1.12071,-1.108948,-1.109109,-1.123449,-1.105564,-1.125221,-1.120549,-1.12071,-1.128605,-1.123449,-1.109431,-1.124093,-1.116198,-1.111042,-1.114909,-1.114426,-1.098797,-1.118293,-1.092513,-1.101536,-1.112331,-1.096058,-1.110881,-1.123771,-1.106531,-1.119743,-1.125543,-1.110237,-1.130216,-1.106047,-1.135372,-1.116198,-1.134889,-1.116521,-1.121354,-1.118454,-1.127638,-1.137306,-1.123288,-1.136822,-1.129894,-1.125382,-1.136178,-1.141334,-1.11217,-1.133761,-1.130216,-1.12796,-1.124416,-1.126832,-1.117971,-1.140528,-1.117971,-1.113943,-1.128121,-1.127477,-1.101214,-1.1336,-1.121032,-1.132472,-1.131022,-1.123288,-1.11926,-1.126349,-1.123932,-1.132794,-1.13215,-1.119421,-1.136178,-1.124899,-1.124738,-1.148584,-1.116359,-1.140528,-1.146651,-1.12361,-1.153096,-1.154062,-1.134566,-1.148584,-1.146812,-1.147134,-1.152773,-1.141978,-1.137789,-1.147295,-1.137144,-1.133922,-1.142623,-1.151484,-1.142784,-1.160507,-1.141817,-1.141334,-1.139239,-1.127799,-1.14085,-1.109753,-1.116037,-1.119582,-1.112009,-1.103953,-1.122804,-1.104597,-1.089935,-1.129733,-1.082523,-1.103308,-1.092835,-1.081396,-1.062544,-1.067217,-1.029997,-1.054971,-1.047721,-1.020813,-1.038537,-1.028225,-0.988105,-1.030964,-0.991972,-1.006473,-1.004539,-0.972315,-0.977632,-0.997289,-0.94444,-0.941379,-0.970381,-0.917049,-0.936867,-0.917855,-0.902387,-0.903192,-0.874835,-0.90142,-0.887886,-0.862428,-0.854533,-0.893686,-0.818602,-0.877574,-0.866134,-0.839226,-0.851149,-0.862106,-0.817958,-0.845027,-0.853405,-0.851472,-0.839065,-0.818763,-0.811513,-0.844382,-0.795884,-0.835037,-0.802973,-0.783477,-0.805068,-0.806035,-0.791533,-0.804423,-0.785089,-0.76092,-0.78815,-0.748836,-0.747224,-0.742391,-0.712583,-0.731112,-0.727406,-0.720156,-0.705493,-0.752219,-0.685192,-0.725312,-0.694859,-0.709038,-0.717739,-0.70791,-0.669724,-0.710005,-0.667146,-0.642655,-0.688897,-0.675363,-0.637982,-0.657962,-0.638949,-0.64056,-0.629926,-0.632182,-0.592223,-0.604307,-0.598829,-0.587712,-0.615425,-0.561126,-0.57031,-0.583361,-0.551298,-0.576755,-0.571599,-0.545819,-0.570955,-0.536958,-0.542597,-0.561932,-0.489909,-0.546303,-0.535346,-0.516495,-0.519395,-0.484592,-0.497482,-0.511661,-0.482175,-0.46284,-0.461229,-0.486365,-0.453818,-0.449145,-0.435611,-0.422882,-0.443506,-0.443344,-0.405803,-0.430293,-0.383084,-0.410636,-0.441572,-0.377122,-0.398391,-0.40113,-0.386307,-0.41112,-0.399196,-0.373094,-0.393235,-0.39404,-0.393718,-0.402419,-0.372933,-0.409186,-0.403547,-0.388079,-0.414664,-0.420465,-0.404836,-0.420948,-0.428843,-0.405641,-0.405964,-0.433194,-0.423043,-0.459457,-0.452045,-0.458329,-0.441733,-0.479436,-0.468319,-0.482175,-0.470736,-0.532607,-0.524229,-0.509083,-0.522134,-0.533252,-0.525518,-0.549042,-0.538085,-0.542758,-0.553714,-0.539052,-0.558065,-0.539697,-0.586745,-0.560643,-0.574177,-0.559354,-0.554681,-0.560804,-0.545336,-0.556615,-0.564026,-0.543241,-0.582072,-0.547592,-0.53019,-0.531157,-0.534541,-0.545819,-0.55742,-0.578044,-0.532285,-0.545497,-0.548881,-0.527612,-0.54598,-0.54018,-0.512467,-0.547914,-0.514884,-0.536474,-0.5173,-0.499738,-0.514722,-0.504894,-0.498288,-0.499093,-0.52294,-0.480403,-0.522134,-0.495871,-0.488459,-0.49281,-0.5086,-0.472508,-0.494904,-0.501833,-0.496999,-0.523101,-0.517462,-0.508761,-0.487815,-0.486526,-0.513917,-0.520684,-0.516173,-0.527935,-0.50715,-0.530674,-0.523423,-0.503444,-0.526162,-0.542114,-0.542919,-0.509083,-0.526807,-0.538408,-0.518106,-0.55597,-0.530351,-0.508922,-0.562576,-0.525518,-0.537924,-0.516173,-0.526323,-0.534218,-0.527612,-0.530351,-0.549203,-0.546142,-0.521812,-0.52874,-0.552264,-0.52004,-0.524068,-0.523584,-0.556131,-0.553231,-0.574338,-0.517623,-0.55017,-0.543241,-0.566765,-0.57885,-0.542436,-0.550653,-0.569505,-0.54598,-0.558065,-0.582233,-0.559193,-0.59029,-0.571277,-0.536152,-0.576272,-0.539697,-0.573533,-0.54308,-0.554037,-0.548397,-0.542275,-0.552587,-0.567088,-0.531963,-0.557098,-0.558065,-0.559837,-0.556937,-0.560159,-0.558709,-0.57176,-0.548558,-0.579333,-0.540986,-0.571599,-0.543403,-0.580139,-0.556776,-0.565315,-0.545497,-0.575144,-0.579978,-0.570955,-0.549042,-0.544208,-0.557743,-0.569988,-0.529385,-0.5803,-0.542114,-0.539697,-0.539858,-0.543564,-0.511822,-0.555326,-0.530351,-0.52004,-0.51005,-0.501027,-0.543564,-0.505861,-0.512306,-0.53438,-0.523101,-0.523745,-0.521812,-0.489426,-0.521006,-0.518267,-0.489265,-0.524229,-0.506183,-0.483625,-0.527451,-0.504572,-0.51585,-0.536796,-0.5144,-0.529224,-0.534863,-0.500866,-0.505538,-0.535024,-0.508439,-0.538569,-0.507794,-0.509889,-0.513433,-0.529868,-0.541308,-0.528901,-0.524551,-0.5173,-0.542436,-0.535507,-0.503605,-0.529868,-0.533735,-0.510533,-0.546947,-0.518751,-0.524068,-0.524068,-0.536635,-0.537119,-0.559032,-0.500705,-0.552425,-0.524229,-0.521329,-0.528257,-0.525518,-0.516656,-0.566443,-0.54308,-0.516173,-0.582233,-0.515528,-0.52584,-0.548558,-0.533091,-0.535991,-0.557743,-0.537119,-0.542436,-0.542275,-0.509083,-0.563382,-0.544369,-0.532285,-0.547914,-0.516334,-0.553231,-0.550814,-0.528901,-0.531802,-0.539213,-0.55597,-0.536313,-0.540663,-0.511661,-0.531318,-0.497643,-0.533091,-0.513111,-0.530996,-0.502316,-0.511017,-0.510694,-0.471219,-0.53164,-0.480081,-0.5086,-0.517462,-0.504894,-0.518428,-0.511339,-0.495388,-0.511178,-0.516978,-0.483625,-0.516817,-0.50296,-0.483948,-0.523906,-0.50006,-0.508439,-0.519395,-0.474764,-0.52004,-0.49571,-0.478953,-0.490393,-0.517462,-0.47138,-0.488298,-0.483787,-0.510372,-0.473314,-0.465418,-0.471541,-0.471219,-0.464774,-0.460101,-0.462196,-0.452529,-0.450917,-0.446567,-0.461551,-0.464291,-0.452851,-0.456557,-0.449628,-0.462518,-0.444956,-0.442217,-0.475892,-0.436738,-0.447695,-0.442861,-0.456396,-0.455429,-0.448662,-0.420948,-0.440283,-0.445922,-0.435933,-0.46139,-0.406447,-0.448662,-0.427715,-0.451723,-0.443183,-0.412892,-0.398069,-0.447856,-0.422559,-0.410475,-0.45124,-0.413537,-0.403708,-0.441733,-0.394846,-0.415631,-0.414503,-0.404352,-0.401452,-0.420787,-0.401774,-0.435611,-0.433999,-0.40693,-0.406769,-0.418209,-0.423687,-0.425299,-0.42546,-0.395652,-0.425299,-0.397907,-0.421109,-0.448823,-0.405641,-0.432871,-0.425782,-0.397907,-0.425621,-0.42401,-0.396296,-0.435449,-0.415309,-0.398069,-0.401452,-0.417565,-0.398874,-0.44705,-0.408058,-0.423526,-0.422076,-0.419659,-0.397263,-0.442055,-0.374383,-0.40258,-0.41402,-0.369389,-0.420787,-0.369711,-0.391785,-0.421915,-0.38244,-0.394685,-0.38679,-0.393074,-0.404191,-0.399358,-0.393396,-0.38534,-0.379056,-0.386468,-0.404675,-0.389207,-0.402741,-0.408864,-0.430455,-0.39404,-0.420304,-0.402097,-0.409831,-0.410314,-0.434966,-0.411281,-0.432388,-0.452529,-0.447373,-0.438511,-0.40693,-0.439961,-0.457523,-0.415309,-0.475408,-0.4485,-0.411442,-0.457523,-0.451078,-0.434322,-0.454784,-0.458812,-0.471058,-0.501833,-0.443022,-0.449628,-0.438027,-0.429971,-0.466707,-0.442861,-0.4456,-0.486042,-0.448017,-0.417242,-0.456396,-0.432388,-0.432549,-0.44705,-0.424332,-0.436094,-0.455268,-0.451401,-0.451078,-0.467674,-0.433677,-0.444795,-0.499577,-0.437705,-0.489909,-0.442861,-0.444633,-0.482175,-0.465418,-0.452529,-0.476375,-0.473314,-0.453012,-0.499416,-0.456879,-0.46139,-0.475569,-0.470413,-0.499899,-0.504572,-0.484914,-0.51585,-0.491359,-0.48717,-0.540986,-0.527451,-0.492004,-0.53019,-0.501027,-0.516334,-0.536635,-0.540986,-0.518428,-0.559998,-0.52584,-0.523745,-0.566604,-0.501833,-0.576433,-0.556131,-0.572083,-0.577561,-0.569988,-0.56741,-0.577883,-0.555809,-0.583845,-0.625092,-0.554359,-0.586584,-0.600279,-0.592062,-0.603824,-0.600279,-0.568538,-0.638627,-0.622837,-0.594318,-0.637177,-0.612364,-0.630087,-0.66634,-0.628798,-0.663601,-0.630087,-0.637016,-0.667629,-0.671979,-0.649905,-0.661345,-0.681002,-0.643138,-0.688897,-0.659573,-0.670368,-0.684225,-0.645394,-0.671657,-0.659412,-0.649422,-0.67488,-0.673913,-0.635565,-0.67923,-0.650872,-0.666662,-0.688253,-0.646522,-0.66054,-0.684225,-0.644427,-0.690992,-0.675041,-0.637821,-0.683419,-0.669401,-0.651356,-0.674719,-0.667629,-0.647166,-0.644105,-0.655223,-0.644105,-0.655061,-0.662634,-0.619131,-0.659251,-0.619131,-0.629604,-0.651678,-0.630409,-0.612525,-0.637016,-0.622514,-0.600924,-0.631376,-0.567732,-0.614942,-0.599796,-0.598668,-0.583522,-0.572727,-0.57321,-0.589967,-0.556131,-0.587873,-0.560321,-0.54018,-0.567893,-0.563382,-0.566282,-0.578044,-0.530996,-0.565154,-0.579655,-0.556776,-0.527129,-0.545336,-0.552587,-0.536152,-0.555326,-0.514561,-0.572244,-0.501188,-0.527935,-0.511339,-0.516495,-0.525034,-0.504249,-0.516334,-0.499416,-0.547431,-0.485559,-0.5144,-0.496677,-0.499255,-0.451723,-0.514722,-0.487654,-0.486042,-0.510533,-0.444472,-0.456879,-0.466707,-0.41837,-0.441572,-0.395974,-0.386307,-0.381151,-0.376478,-0.350376,-0.381151,-0.307678,-0.307517,-0.321535,-0.279965,-0.260791,-0.257891,-0.23485,-0.215032,-0.18474,-0.18619,-0.11594,-0.11449,-0.04714,-0.030705,-0.026355,0.018599,0.06178,0.106895,0.114629,0.141698,0.226449,0.214848,0.263347,0.309106,0.362116,0.40143,0.441389,0.484571,0.511479,0.545154,0.568195,0.598808,0.6262,0.649402,0.681466,0.713368,0.738504,0.770084,0.799409,0.823578,0.852903,0.874816,0.891573,0.913647,0.927504,0.934432,0.947,0.942488,0.936043,0.936366,0.923637,0.899629,0.863859,0.787164,0.771857,0.75091,0.659714,0.601548,0.546282,0.441389,0.405942,0.340686,0.236922,0.199541,0.11044,0.036,0.004097,-0.096766,-0.147037,-0.199241,-0.26788,-0.322824,-0.349731,-0.415953,-0.464613,-0.472508,-0.521973,-0.534863,-0.58465,-0.605758,-0.592384,-0.647328,-0.628315,-0.663601,-0.674396,-0.649422,-0.640721,-0.645555,-0.659412,-0.638627,-0.624931,-0.649261,-0.636693,-0.647489,-0.627026,-0.63186,-0.610591,-0.595446,-0.601729,-0.616553,-0.570149,-0.598507,-0.613975,-0.542275,-0.59609,-0.541147,-0.566604,-0.587873,-0.569505,-0.556131,-0.565799,-0.553231,-0.571277,-0.574177,-0.547431,-0.533413,-0.577239,-0.557098,-0.536313,-0.560159,-0.531963,-0.552909,-0.568216,-0.57031,-0.559998,-0.562576,-0.567893,-0.593995,-0.552425,-0.569666,-0.613653,-0.579978,-0.600924,-0.603341,-0.584489,-0.606885,-0.646844,-0.598185,-0.634276,-0.611075,-0.618003,-0.638305,-0.649261,-0.623803,-0.638143,-0.629604,-0.631698,-0.669563,-0.62332,-0.638627,-0.659251,-0.626704,-0.656512,-0.667629,-0.647005,-0.674557,-0.657801,-0.652,-0.676652,-0.683258,-0.684064,-0.691153,-0.681164,-0.693087,-0.712744,-0.704043,-0.698404,-0.73659,-0.723378,-0.73659,-0.752058,-0.728695,-0.745935,-0.754797,-0.764304,-0.766237,-0.758664,-0.774938,-0.775582,-0.761242,-0.784283,-0.778805,-0.786378,-0.792661,-0.797334,-0.793145,-0.790728,-0.791211,-0.795884,-0.796206,-0.790728,-0.794917,-0.7838,-0.800073,-0.790083,-0.787667,-0.806196,-0.777516,-0.784605,-0.769459,-0.783961,-0.77381,-0.785089,-0.782833,-0.782188,-0.768171,-0.766559,-0.775421,-0.75657,-0.773971,-0.778805,-0.772521,-0.764626,-0.759148,-0.766398,-0.756731,-0.792339,-0.757536,-0.769943,-0.779771,-0.776227,-0.786216,-0.806035,-0.788311,-0.796851,-0.802812,-0.780255,-0.821341,-0.797656,-0.811835,-0.816185,-0.818602,-0.825208,-0.819086,-0.825208,-0.826175,-0.838098,-0.831492,-0.842771,-0.811835,-0.836004,-0.840032,-0.836004,-0.839871,-0.840354,-0.841643,-0.83117,-0.837132,-0.837615,-0.834231,-0.855822,-0.852277,-0.853083,-0.840193,-0.855339,-0.840837,-0.85405,-0.846638,-0.843577,-0.851633,-0.838582,-0.847121,-0.83552,-0.854533,-0.858239,-0.831976,-0.846638,-0.849699,-0.827625,-0.853083,-0.853244,-0.834715,-0.84841,-0.841804,-0.844221,-0.826981,-0.850827,-0.852599,-0.845027,-0.854533,-0.840999,-0.853083,-0.850183,-0.850666,-0.867262,-0.842932,-0.879829,-0.871934,-0.875801,-0.887563,-0.881441,-0.87709,-0.886597,-0.891914,-0.882569,-0.902548,-0.889336,-0.908026,-0.901581,-0.903676,-0.911087,-0.910926,-0.90287,-0.925589,-0.905609,-0.913021,-0.928489,-0.908832,-0.933161,-0.939606,-0.942507,-0.941057,-0.925428,-0.950563,-0.945246,-0.946051,-0.946212,-0.950241,-0.955235,-0.950079,-0.956847,-0.963453,-0.96023,-0.976504,-0.966836,-0.956363,-0.966031,-0.966514,-0.945568,-0.975215,-0.946051,-0.952335,-0.960714,-0.957975,-0.954269,-0.966997,-0.937995,-0.958136,-0.947663,-0.939123,-0.955074,-0.94299,-0.942507,-0.957008,-0.951368,-0.940895,-0.94009,-0.928328,-0.928167,-0.934773,-0.917694,-0.90722,-0.924461,-0.927522,-0.928811,-0.900614,-0.932678,-0.921722,-0.92575,-0.899487,-0.933645,-0.907865,-0.891753,-0.952174,-0.887402,-0.944924,-0.912538,-0.897553,-0.913021,-0.908187,-0.888047,-0.906737,-0.914793,-0.88708,-0.924461,-0.897392,-0.888691,-0.875157,-0.873223,-0.889175,-0.87419,-0.877735,-0.8613,-0.877413,-0.829236,-0.855822,-0.883213,-0.855983,-0.861461,-0.857111,-0.863878,-0.835681,-0.862589,-0.83262,-0.848732,-0.83407,-0.836326,-0.876607,-0.817152,-0.832781,-0.872257,-0.851955,-0.850505,-0.873707,-0.826981,-0.85405,-0.837937,-0.856144,-0.868551,-0.836487,-0.876285,-0.880957,-0.853244,-0.85985,-0.853244,-0.864523,-0.857433,-0.864684,-0.821664,-0.845349,-0.857917,-0.843577,-0.859206,-0.850183,-0.849538,-0.838743,-0.855177,-0.840193,-0.860495,-0.849377,-0.827464,-0.864362,-0.84986,-0.835843,-0.843899,-0.840193,-0.830687,-0.856789,-0.827142,-0.84696,-0.845027,-0.852438,-0.863717,-0.845188,-0.813607,-0.842771,-0.831814,-0.833909,-0.837454,-0.821664,-0.835198,-0.826336,-0.790083,-0.823436,-0.845349,-0.78106,-0.82537,-0.802007,-0.807807,-0.80539,-0.807807,-0.7925,-0.816991,-0.751091,-0.785894,-0.795884,-0.781544,-0.79395,-0.774777,-0.786055,-0.786055,-0.79814,-0.778805,-0.787022,-0.774454,-0.772199,-0.77961,-0.795239,-0.775582,-0.77671,-0.792178,-0.783477,-0.787828,-0.782833,-0.771715,-0.804101,-0.75238,-0.75093,-0.807968,-0.755603,-0.761403,-0.774938,-0.748513,-0.772843,-0.782511,-0.773649,-0.774615,-0.759631,-0.767204,-0.795562,-0.751736,-0.768332,-0.775099,-0.746419,-0.76092,-0.771554,-0.785572,-0.754475,-0.756408,-0.761403,-0.747547,-0.768976,-0.738363,-0.75657,-0.756086,-0.736912,-0.748352,-0.768171,-0.7208,-0.751414,-0.74803,-0.728212,-0.755925,-0.743357,-0.748352,-0.777516,-0.735462,-0.740779,-0.765109,-0.737879,-0.762531,-0.754797,-0.728373,-0.753992,-0.783316,-0.729984,-0.762692,-0.730467,-0.753186,-0.755119,-0.748352,-0.727406,-0.778321,-0.739168,-0.714677,-0.779127,-0.714677,-0.743519,-0.755764,-0.737879,-0.744969,-0.774615,-0.727567,-0.75238,-0.758503,-0.722895,-0.772843,-0.740457,-0.75383,-0.797817,-0.730145,-0.762692,-0.770587,-0.734818,-0.75657,-0.761403,-0.716289,-0.758825,-0.767526,-0.735623,-0.759953,-0.746097,-0.733851,-0.76672,-0.723861,-0.687609,-0.74368,-0.717416,-0.715483,-0.77961,-0.674396,-0.690992,-0.706782,-0.691637,-0.692281,-0.693892,-0.678424,-0.655384,-0.69792,-0.646522,-0.663118,-0.68068,-0.641366,-0.673107,-0.634276,-0.633954,-0.65345,-0.66344,-0.604146,-0.643622,-0.638627,-0.592223,-0.649261,-0.596251,-0.610913,-0.61897,-0.5832,-0.613491,-0.632987,-0.574822,-0.636371,-0.597057,-0.592223,-0.61478,-0.57321,-0.596896,-0.60463,-0.556615,-0.573694,-0.58175,-0.566443,-0.550975,-0.557581,-0.55162,-0.555003,-0.593029,-0.536152,-0.590773,-0.539536,-0.544208,-0.557904,-0.563382,-0.54872,-0.538085,-0.539536,-0.529385,-0.577239,-0.542919,-0.554681,-0.541308,-0.549525,-0.563704,-0.556454,-0.52149,-0.561771,-0.54308,-0.546786,-0.566121,-0.540502,-0.529062,-0.555809,-0.552587,-0.542275,-0.54598,-0.515045,-0.530351,-0.53728,-0.519717,-0.549042,-0.538247,-0.526807,-0.565799,-0.556776,-0.540825,-0.538891,-0.542114,-0.544208,-0.581589,-0.516978,-0.510211,-0.544208,-0.531157,-0.550331,-0.543241,-0.531157,-0.535346,-0.550009,-0.52004,-0.538569,-0.564993,-0.556615,-0.550814,-0.567249,-0.524068,-0.552587,-0.529385,-0.525679,-0.527773,-0.538085,-0.533735,-0.540019,-0.524712,-0.53438,-0.551136,-0.505699,-0.567732,-0.552425,-0.505216,-0.552587,-0.52149,-0.49007,-0.565799,-0.513433,-0.508116,-0.551298,-0.49426,-0.526807,-0.541952,-0.524873,-0.527935,-0.531963,-0.517945,-0.52874,-0.510211,-0.546625,-0.534218,-0.510533,-0.524712,-0.526162,-0.529707,-0.535346,-0.529385,-0.535346,-0.538085,-0.536474,-0.540663,-0.507472,-0.563221,-0.508277,-0.547914,-0.556131,-0.531318,-0.537924,-0.546786,-0.517623,-0.551298,-0.545658,-0.531963,-0.593351,-0.550975,-0.554359,-0.536474,-0.539858,-0.55452,-0.548075,-0.536796,-0.558709,-0.560965,-0.553876,-0.572566,-0.531963,-0.570632,-0.548075,-0.57176,-0.555165,-0.560643,-0.548236,-0.539697,-0.594157,-0.544691,-0.547108,-0.582717,-0.563543,-0.573049,-0.588034,-0.548236,-0.583522,-0.58175,-0.5832,-0.60044,-0.592384,-0.577239,-0.614619,-0.567893,-0.600763,-0.583039,-0.608174,-0.620259,-0.620259,-0.581911,-0.602535,-0.59609,-0.593995,-0.60608,-0.598507,-0.611397,-0.612364,-0.601891,-0.605919,-0.625576,-0.612202,-0.603502,-0.627026,-0.599474,-0.614619,-0.610591,-0.611719,-0.605113,-0.594479,-0.611236,-0.610108,-0.603824,-0.616714,-0.625898,-0.600924,-0.591095,-0.628315,-0.606563,-0.634276,-0.607208,-0.613491,-0.627187,-0.631537,-0.595929,-0.621709,-0.601729,-0.625092,-0.613008,-0.601246,-0.615425,-0.642655,-0.615103,-0.643783,-0.623803,-0.638466,-0.656673,-0.621225,-0.651033,-0.636532,-0.663762,-0.656189,-0.657801,-0.641366,-0.667629,-0.663279,-0.667146,-0.658928,-0.66779,-0.643461,-0.627187,-0.665535,-0.65055,-0.655545,-0.66634,-0.668274,-0.650389,-0.656995,-0.618325,-0.629282,-0.628798,-0.597701,-0.687447,-0.621387,-0.588195,-0.613491,-0.611075,-0.597057,-0.611236,-0.620259,-0.572566,-0.608013,-0.593351,-0.58175,-0.594962,-0.522295,-0.581428,-0.577722,-0.533735,-0.562415,-0.565315,-0.556776,-0.572244,-0.56596,-0.526001,-0.568538,-0.574016,-0.562415,-0.562737,-0.548075,-0.567571,-0.570471,-0.567732,-0.559193,-0.549525,-0.535669,-0.584328,-0.554681,-0.568054
 14:56:00.30729,-0.589001,-0.541469,-0.583361,-0.559032,-0.56741,-0.558387,-0.55887,-0.567088,-0.573372,-0.576272,-0.578528,-0.591579,-0.551298,-0.587389,-0.563382,-0.554681,-0.572083,-0.59174,-0.579333,-0.549525,-0.585456,-0.572727,-0.574983,-0.584489,-0.553231,-0.560965,-0.594157,-0.547592,-0.549847,-0.589162,-0.578528,-0.588195,-0.589645,-0.548236,-0.578528,-0.559998,-0.594801,-0.590128,-0.550975,-0.558387,-0.592868,-0.572244,-0.566443,-0.610913,-0.558387,-0.601729,-0.595123,-0.560159,-0.580139,-0.554359,-0.572405,-0.608013,-0.569182,-0.555326,-0.590128,-0.553876,-0.540663,-0.57031,-0.503605,-0.544047,-0.536152,-0.511661,-0.504894,-0.506344,-0.501349,-0.539052,-0.496838,-0.472347,-0.498771,-0.443022,-0.492487,-0.456396,-0.470252,-0.481853,-0.473152,-0.448984,-0.450756,-0.445278,-0.434805,-0.436094,-0.418854,-0.432388,-0.418854,-0.43126,-0.435933,-0.409025,-0.424332,-0.40548,-0.414987,-0.383084,-0.385018,-0.425137,-0.397585,-0.375833,-0.399358,-0.408219,-0.398069,-0.389368,-0.363266,-0.358432,-0.384051,-0.347476,-0.343125,-0.34957,-0.347798,-0.367455,-0.364394,-0.350376,-0.347315,-0.342642,-0.322985,-0.353276,-0.306228,-0.341514,-0.344414,-0.339742,-0.322501,-0.346509,-0.358432,-0.333458,-0.341192,-0.325079,-0.343931,-0.350859,-0.339419,-0.358754,-0.334263,-0.366972,-0.333941,-0.369389,-0.368744,-0.333136,-0.361816,-0.348926,-0.364394,-0.341031,-0.366166,-0.357788,-0.34232,-0.342481,-0.333136,-0.32798,-0.30655,-0.303005,-0.257729,-0.285604,-0.245806,-0.254829,-0.238233,-0.245645,-0.212131,-0.197147,-0.206653,-0.182968,-0.164439,-0.1646,-0.14172,-0.126897,-0.120935,-0.078076,-0.068247,-0.026355,-0.010565,0.012798,0.021821,0.072092,0.092071,0.124457,0.125907,0.202442,0.19793,0.27092,0.288965,0.314584,0.363727,0.428822,0.440423,0.460241,0.520018,0.546282,0.577057,0.61476,0.631033,0.657619,0.684205,0.701606,0.728836,0.748332,0.772018,0.79377,0.805371,0.827606,0.840335,0.847424,0.859831,0.85822,0.856286,0.850164,0.834373,0.826962,0.77089,0.761222,0.716913,0.684366,0.606381,0.565617,0.458791,0.426405,0.375006,0.323124,0.238533,0.168444,0.095777,0.058235,-0.001059,-0.114651,-0.151871,-0.231305,-0.273842,-0.318151,-0.403063,-0.45704,-0.539213,-0.56596,-0.602535,-0.666179,-0.682291,-0.729984,-0.719672,-0.746902,-0.775904,-0.781866,-0.793306,-0.805551,-0.810868,-0.803296,-0.817797,-0.794756,-0.807001,-0.813446,-0.808451,-0.783477,-0.792339,-0.774293,-0.757214,-0.77091,-0.752058,-0.746902,-0.724667,-0.715483,-0.725956,-0.70646,-0.695826,-0.676813,-0.699532,-0.666985,-0.672946,-0.643944,-0.637016,-0.6549,-0.613814,-0.65909,-0.634276,-0.668435,-0.642655,-0.637982,-0.636049,-0.641205,-0.648616,-0.652483,-0.656512,-0.632343,-0.648616,-0.651839,-0.65909,-0.649422,-0.648616,-0.646361,-0.648616,-0.655384,-0.674235,-0.639594,-0.679713,-0.66199,-0.679713,-0.674719,-0.657801,-0.693087,-0.675685,-0.671979,-0.689864,-0.687931,-0.679713,-0.714516,-0.7208,-0.711294,-0.708394,-0.736912,-0.701304,-0.73079,-0.740779,-0.744324,-0.741102,-0.741585,-0.764948,-0.745774,-0.711294,-0.748191,-0.748191,-0.757697,-0.759792,-0.741746,-0.756731,-0.754153,-0.744002,-0.74948,-0.780094,-0.752541,-0.772199,-0.765593,-0.763981,-0.773004,-0.770104,-0.738846,-0.778321,-0.768332,-0.735623,-0.774293,-0.752703,-0.763981,-0.760437,-0.760275,-0.770587,-0.762531,-0.758986,-0.768493,-0.771232,-0.764465,-0.782511,-0.782027,-0.766882,-0.781383,-0.783155,-0.779127,-0.768332,-0.798945,-0.774615,-0.777838,-0.778482,-0.766559,-0.794756,-0.773488,-0.788955,-0.775904,-0.792178,-0.780255,-0.778805,-0.763015,-0.789117,-0.784122,-0.776066,-0.794756,-0.787183,-0.796851,-0.797978,-0.788311,-0.795723,-0.804907,-0.816669,-0.799751,-0.820536,-0.827786,-0.832137,-0.832781,-0.835359,-0.831492,-0.839226,-0.831331,-0.849538,-0.845832,-0.840032,-0.853888,-0.863395,-0.85405,-0.870001,-0.865973,-0.85131,-0.868873,-0.867906,-0.874673,-0.882891,-0.864845,-0.888369,-0.890947,-0.886113,-0.89562,-0.878218,-0.903837,-0.899325,-0.907059,-0.915116,-0.902065,-0.903192,-0.908026,-0.901259,-0.907059,-0.916082,-0.908348,-0.908832,-0.921883,-0.914793,-0.931228,-0.922205,-0.932517,-0.925589,-0.936223,-0.929778,-0.93719,-0.951207,-0.938479,-0.952335,-0.939606,-0.93719,-0.953141,-0.955235,-0.936867,-0.96442,-0.961842,-0.958619,-0.973281,-0.963775,-0.984882,-0.990199,-0.99455,-0.997611,-1.001478,-0.98456,-0.989394,-0.991166,-1.00035,-1.019202,-1.00889,-1.012918,-1.020813,-1.014207,-1.022746,-1.029352,-1.024841,-1.036442,-1.029352,-1.018557,-1.033058,-1.028386,-1.019846,-1.026936,-1.03193,-1.031125,-1.028708,-1.022424,-1.000672,-1.023874,-1.018235,-0.984882,-1.020168,-0.996483,-0.996805,-1.012596,-0.991811,-1.012757,-1.009051,-1.000511,-1.002767,-1.007923,-1.002928,-1.026613,-0.983432,-0.991811,-1.003734,-0.992777,-0.991327,-1.009373,-0.980049,-0.98601,-0.988427,-0.977954,-0.987138,-1.001961,-0.962647,-0.988749,-0.957813,-0.959264,-0.978115,-0.951852,-0.952496,-0.952657,-0.936384,-0.923816,-0.938479,-0.946857,-0.935417,-0.945085,-0.91141,-0.918983,-0.910604,-0.911087,-0.945729,-0.911893,-0.887724,-0.937512,-0.892236,-0.898198,-0.920433,-0.883535,-0.921883,-0.890947,-0.89707,-0.926716,-0.910926,-0.90287,-0.908509,-0.893042,-0.898681,-0.929456,-0.901259,-0.895136,-0.916405,-0.910765,-0.896103,-0.9243,-0.904804,-0.900453,-0.919144,-0.875157,-0.881118,-0.873868,-0.857433,-0.865328,-0.845671,-0.849699,-0.81828,-0.806357,-0.820214,-0.795723,-0.775421,-0.807646,-0.775099,-0.751897,-0.777677,-0.711616,-0.732079,-0.709682,-0.675846,-0.697598,-0.656028,-0.689703,-0.645555,-0.655223,-0.612847,-0.621709,-0.625576,-0.593512,-0.620098,-0.609302,-0.575627,-0.581267,-0.594801,-0.561932,-0.548236,-0.576272,-0.524551,-0.569021,-0.546303,-0.550975,-0.536635,-0.546625,-0.53438,-0.56161,-0.540986,-0.551942,-0.563865,-0.547592,-0.57321,-0.531479,-0.549203,-0.552909,-0.551298,-0.535669,-0.525034,-0.548397,-0.539858,-0.542919,-0.540825,-0.520684,-0.517139,-0.516978,-0.524068,-0.52149,-0.48282,-0.506022,-0.498771,-0.490876,-0.504249,-0.496677,-0.48282,-0.477503,-0.494099,-0.48282,-0.468158,-0.484431,-0.452367,-0.46703,-0.458168,-0.436577,-0.455751,-0.45559,-0.456879,-0.421432,-0.453656,-0.450434,-0.430293,-0.450595,-0.406125,-0.459296,-0.442378,-0.441894,-0.461068,-0.412248,-0.4398,-0.466063,-0.443828,-0.448823,-0.417726,-0.454462,-0.441733,-0.445761,-0.442378,-0.442378,-0.4485,-0.460746,-0.439639,-0.434483,-0.434322,-0.464452,-0.442217,-0.425299,-0.510855,-0.432066,-0.45559,-0.459618,-0.46139,-0.464613,-0.484109,-0.439639,-0.472991,-0.501994,-0.459779,-0.466063,-0.453818,-0.459457,-0.520362,-0.446084,-0.473152,-0.491843,-0.486042,-0.483464,-0.498932,-0.478792,-0.506183,-0.48862,-0.488137,-0.482336,-0.483142,-0.502316,-0.490554,-0.514239,-0.479436,-0.488137,-0.503444,-0.483303,-0.507311,-0.472347,-0.504088,-0.494904,-0.492971,-0.497966,-0.482336,-0.473958,-0.482981,-0.515367,-0.476214,-0.496515,-0.454784,-0.484753,-0.471702,-0.477019,-0.467513,-0.482336,-0.442378,-0.473314,-0.464774,-0.450917,-0.480564,-0.453979,-0.449951,-0.464291,-0.468158,-0.449789,-0.47573,-0.470252,-0.458168,-0.463968,-0.476697,-0.443989,-0.479759,-0.453818,-0.47138,-0.465096,-0.48862,-0.494582,-0.491682,-0.441572,-0.494099,-0.509083,-0.518751,-0.537763,-0.500544,-0.495065,-0.522295,-0.526968,-0.509728,-0.544208,-0.518106,-0.540986,-0.556131,-0.497804,-0.547108,-0.553392,-0.52294,-0.569343,-0.526484,-0.531318,-0.569343,-0.522456,-0.542758,-0.538569,-0.5086,-0.556131,-0.565315,-0.532124,-0.562093,-0.524712,-0.55742,-0.548397,-0.549847,-0.532285,-0.548397,-0.53873,-0.532285,-0.569827,-0.511178,-0.55017,-0.538085,-0.550653,-0.525518,-0.519073,-0.524551,-0.55162,-0.529385,-0.52294,-0.536796,-0.533413,-0.515045,-0.527612,-0.523906,-0.520523,-0.532607,-0.505699,-0.511822,-0.555648,-0.519717,-0.516978,-0.547753,-0.50441,-0.526162,-0.513433,-0.523262,-0.524551,-0.523262,-0.528096,-0.523423,-0.506827,-0.523745,-0.537441,-0.493132,-0.496838,-0.511017,-0.504088,-0.523906,-0.50006,-0.503283,-0.516173,-0.513111,-0.488781,-0.494421,-0.519878,-0.468319,-0.525034,-0.453334,-0.504088,-0.526807,-0.473152,-0.470736,-0.502316,-0.480725,-0.497482,-0.508439,-0.466546,-0.504088,-0.50296,-0.485398,-0.512467,-0.489104,-0.470736,-0.509566,-0.473958,-0.505861,-0.52729,-0.434483,-0.492487,-0.504572,-0.439639,-0.484592,-0.481047,-0.482014,-0.485076,-0.48862,-0.454945,-0.483948,-0.48137,-0.474603,-0.503444,-0.474603,-0.484109,-0.484109,-0.476053,-0.492648,-0.483303,-0.46848,-0.462679,-0.500544,-0.473475,-0.497804,-0.46284,-0.456718,-0.497482,-0.472025,-0.479597,-0.454462,-0.481853,-0.480081,-0.472186,-0.45414,-0.488781,-0.478953,-0.482498,-0.491359,-0.469124,-0.483625,-0.48862,-0.492326,-0.487815,-0.48427,-0.480081,-0.503444,-0.505538,-0.474603,-0.479597,-0.500705,-0.474119,-0.492648,-0.497482,-0.471863,-0.463646,-0.533252,-0.49007,-0.497643,-0.469447,-0.469769,-0.495871,-0.518106,-0.509405,-0.515367,-0.489587,-0.512628,-0.526807,-0.499577,-0.519073,-0.488298,-0.487654,-0.527451,-0.503121,-0.5115,-0.520362,-0.516817,-0.506505,-0.536796,-0.505216,-0.531963,-0.532929,-0.47992,-0.553714,-0.502477,-0.511339,-0.52004,-0.489909,-0.501994,-0.526323,-0.526968,-0.502155,-0.55742,-0.506022,-0.506022,-0.508439,-0.518751,-0.492648,-0.508761,-0.534863,-0.505699,-0.490393,-0.490554,-0.490554,-0.499416,-0.49861,-0.508439,-0.499093,-0.507955,-0.494099,-0.507633,-0.490393,-0.463163,-0.50715,-0.496515,-0.516656,-0.479597,-0.522618,-0.471058,-0.494904,-0.48427,-0.493776,-0.47283,-0.472186,-0.496838,-0.466546,-0.483303,-0.479114,-0.449467,-0.483303,-0.49716,-0.431744,-0.447534,-0.463807,-0.444956,-0.479597,-0.422076,-0.431421,-0.468963,-0.441089,-0.450756,-0.429971,-0.430616,-0.458812,-0.422559,-0.431582,-0.409992,-0.432549,-0.408542,-0.453818,-0.418531,-0.458329,-0.448662,-0.428843,-0.421593,-0.436577,-0.424654,-0.427877,-0.440766,-0.424815,-0.45994,-0.434805,-0.435933,-0.435127,-0.448823,-0.455429,-0.436255,-0.448339,-0.415309,-0.451562,-0.436416,-0.426749,-0.486042,-0.417242,-0.449467,-0.430938,-0.442055,-0.442539,-0.440444,-0.420143,-0.42546,-0.451401,-0.419498,-0.446567,-0.426588,-0.427071,-0.447211,-0.420143,-0.415792,-0.408381,-0.403869,-0.410797,-0.405803,-0.415631,-0.40548,-0.402902,-0.396135,-0.440605,-0.381795,-0.413537,-0.393557,-0.39678,-0.379378,-0.402258,-0.390174,-0.383729,-0.395652,-0.395168,-0.408542,-0.386468,-0.403547,-0.41692,-0.442055,-0.4456,-0.430938,-0.445761,-0.457846,-0.4398,-0.441733,-0.447856,-0.435933,-0.467835,-0.470574,-0.462196,-0.47992,-0.488137,-0.473152,-0.491843,-0.458168,-0.506183,-0.461229,-0.50296,-0.51005,-0.461068,-0.497966,-0.531318,-0.523262,-0.477986,-0.512467,-0.458007,-0.513917,-0.480886,-0.507311,-0.49426,-0.490232,-0.506022,-0.515528,-0.513756,-0.508116,-0.517462,-0.496999,-0.533735,-0.526484,-0.536958,-0.52729,-0.540825,-0.519073,-0.528418,-0.562899,-0.551298,-0.566604,-0.566604,-0.554198,-0.576755,-0.55307,-0.566765,-0.566443,-0.549364,-0.571599,-0.531157,-0.574338,-0.562899,-0.564832,-0.557259,-0.558065,-0.577722,-0.567249,-0.573694,-0.573372,-0.580622,-0.574338,-0.565799,-0.547753,-0.567088,-0.572566,-0.558709,-0.565477,-0.571116,-0.567893,-0.555003,-0.573372,-0.542275,-0.569827,-0.560321,-0.52584,-0.587067,-0.544691,-0.564349,-0.547108,-0.553231,-0.560482,-0.545658,-0.524712,-0.58755,-0.567571,-0.55017,-0.560321,-0.560965,-0.545497,-0.577077,-0.560159,-0.574822,-0.592062,-0.549686,-0.559354,-0.579333,-0.555648,-0.577561,-0.553876,-0.543725,-0.563221,-0.579172,-0.575144,-0.554681,-0.566443,-0.556776,-0.590612,-0.558065,-0.56306,-0.612041,-0.557581,-0.583522,-0.582072,-0.571277,-0.60044,-0.601085,-0.555648,-0.568699,-0.588839,-0.583039,-0.597057,-0.587712,-0.582556,-0.619131,-0.574177,-0.621387,-0.618486,-0.628154,-0.59609,-0.615908,-0.565315,-0.624609,-0.62767,-0.587873,-0.595929,-0.601891,-0.603018,-0.602535,-0.594318,-0.597862,-0.571921,-0.587389,-0.553714,-0.577883,-0.54598,-0.519878,-0.529546,-0.519395,-0.493454,-0.463968,-0.463485,-0.430455,-0.438188,-0.40548,-0.404514,-0.373578,-0.347476,-0.366649,-0.309289,-0.298816,-0.286893,-0.26208,-0.232916,-0.216482,-0.164922,-0.155899,-0.171367,-0.080493,-0.059386,-0.013143,-0.013304,0.045668,0.083532,0.127196,0.15781,0.211948,0.234989,0.270758,0.329086,0.345198,0.406586,0.455407,0.502939,0.530169,0.564972,0.598325,0.619271,0.646663,0.671154,0.6921,0.70644,0.726419,0.740598,0.749621,0.766862,0.770245,0.770568,0.775885,0.749944,0.746399,0.719652,0.695806,0.655202,0.631195,0.583985,0.501328,0.476354,0.416415,0.357605,0.293155,0.233378,0.148626,0.122524,0.040673,0.002164,-0.060675,-0.143492,-0.185062,-0.214226,-0.300911,-0.328785,-0.389046,-0.455268,-0.495871,-0.527129,-0.52729,-0.573533,-0.629282,-0.631215,-0.660056,-0.660056,-0.685031,-0.678263,-0.715,-0.722895,-0.666179,-0.72515,-0.701787,-0.684869,-0.682453,-0.666824,-0.640399,-0.628154,-0.632665,-0.621064,-0.622514,-0.575627,-0.591256,-0.593512,-0.543886,-0.523101,-0.516334,-0.500866,-0.499577,-0.467191,-0.457201,-0.433194,-0.450917,-0.416437,-0.424171,-0.389046,-0.382601,-0.389046,-0.412086,-0.377606,-0.349731,-0.349087,-0.350537,-0.346831,-0.325079,-0.321374,-0.316056,-0.304294,-0.313801,-0.324757,-0.304294,-0.271908,-0.316056,-0.296722,-0.305906,-0.316056,-0.254024,-0.304455,-0.276581,-0.285282,-0.294466,-0.302039,-0.302844,-0.292049,-0.285604,-0.278676,-0.293499,-0.272231,-0.296399,-0.326852,-0.28222,-0.307517,-0.29221,-0.28931,-0.323146,-0.303166,-0.277709,-0.29656,-0.323468,-0.308645,-0.280126,-0.277387,-0.290599,-0.290277,-0.298977,-0.278998,-0.325402,-0.261113,-0.27787,-0.314445,-0.276903,-0.317345,-0.32234,-0.27207,-0.293338,-0.318634,-0.314767,-0.311223,-0.307195,-0.295916,-0.319118,-0.322179,-0.300589,-0.332813,-0.288988,-0.316056,-0.331847,-0.298011,-0.346026,-0.336519,-0.335875,-0.331524,-0.344898,-0.319279,-0.319762,-0.327013,-0.329107,-0.309289,-0.314284,-0.300589,-0.333458,-0.322179,-0.315573,-0.375995,-0.30655,-0.328624,-0.341192,-0.34957,-0.340386,-0.349731,-0.365844,-0.348926,-0.398713,-0.344414,-0.389368,-0.376961,-0.363588,-0.384856,-0.372128,-0.357949,-0.38969,-0.38969,-0.393074,-0.377767,-0.385984,-0.371322,-0.406608,-0.376156,-0.407736,-0.396457,-0.431744,-0.434644,-0.451562,-0.407575,-0.467674,-0.426104,-0.45849,-0.46848,-0.479759,-0.503121,-0.488298,-0.466707,-0.519073,-0.518589,-0.505377,-0.517623,-0.533735,-0.505861,-0.508439,-0.555648,-0.537119,-0.554842,-0.547108,-0.567571,-0.57321,-0.551136,-0.557098,-0.583361,-0.556937,-0.559515,-0.605113,-0.547269,-0.558226,-0.592223,-0.544853,-0.582395,-0.569182,-0.554681,-0.605113,-0.602213,-0.55452,-0.570471,-0.565799,-0.549042,-0.588356,-0.55742,-0.565154,-0.568538,-0.571599,-0.579494,-0.582395,-0.563704,-0.566282,-0.605274,-0.580139,-0.598346,-0.59174,-0.601568,-0.596735,-0.602374,-0.592706,-0.609786,-0.59899,-0.609463,-0.662795,-0.584489,-0.642333,-0.639755,-0.63911,-0.672624,-0.647811,-0.658284,-0.645716,-0.678424,-0.690509,-0.697437,-0.708877,-0.689703,-0.72934,-0.738201,-0.723378,-0.760275,-0.768654,-0.759309,-0.782672,-0.785411,-0.801684,-0.82682,-0.803618,-0.834876,-0.832781,-0.84696,-0.873868,-0.863717,-0.874351,-0.898198,-0.896425,-0.911732,-0.925428,-0.917532,-0.926878,-0.948952,-0.933967,-0.96023,-0.962808,-0.968286,-0.988588,-0.978437,-0.982304,-0.998256,-0.999383,-1.006151,-1.010823,-1.003895,-1.017107,-1.031608,-1.025163,-1.017107,-1.029352,-1.025808,-1.031125,-1.047398,-1.018557,-1.04627,-1.026291,-1.042726,-1.049815,-1.051426,-1.047398,-1.067055,-1.053038,-1.060449,-1.07769,-1.052554,-1.076723,-1.093319,-1.081557,-1.093158,-1.09348,-1.10492,-1.101536,-1.109753,-1.110559,-1.121999,-1.122321,-1.120871,-1.1394,-1.123771,-1.13795,-1.141011,-1.141495,-1.142623,-1.151484,-1.145523,-1.155351,-1.157607,-1.147779,-1.164535,-1.153096,-1.156479,-1.167113,-1.154062,-1.168886,-1.163408,-1.178714,-1.178392,-1.17098,-1.173397,-1.178392,-1.171947,-1.17517,-1.176459,-1.183548,-1.185482,-1.186771,-1.18806,-1.188543,-1.184193,-1.194021,-1.16953,-1.188543,-1.187898,-1.193538,-1.196599,-1.19821,-1.184354,-1.211745,-1.186932,-1.191765,-1.202883,-1.176136,-1.207394,-1.219962,-1.203205,-1.19386,-1.203205,-1.191121,-1.20385,-1.208039,-1.216095,-1.213356,-1.199177,-1.20965,-1.220284,-1.202077,-1.216095,-1.220445,-1.19676,-1.206911,-1.207556,-1.199983,-1.212389,-1.214323,-1.206267,-1.215451,-1.194182,-1.206911,-1.209328,-1.204655,-1.210617,-1.20675,-1.204011,-1.208361,-1.204816,-1.196921,-1.204011,-1.209972,-1.194827,-1.203366,-1.201916,-1.196116,-1.184031,-1.206589,-1.200949,-1.19241,-1.206105,-1.206267,-1.206589,-1.185643,-1.204494,-1.19821,-1.202883,-1.19821,-1.192732,-1.181615,-1.165663,-1.194988,-1.159863,-1.187093,-1.190476,-1.181292,-1.184837,-1.177587,-1.189832,-1.183709,-1.18387,-1.163408,-1.199983,-1.168402,-1.197566,-1.19096,-1.164697,-1.186771,-1.195955,-1.174686,-1.193699,-1.178392,-1.172108,-1.186448,-1.185965,-1.186126,-1.185643,-1.174525,-1.165341,-1.16953,-1.152773,-1.176942,-1.183065,-1.174686,-1.162441,-1.178714,-1.158574,-1.18387,-1.154868,-1.159218,-1.154062,-1.157607,-1.157285,-1.165341,-1.141495,-1.131988,-1.171625,-1.142139,-1.14794,-1.152451,-1.130861,-1.145362,-1.14085,-1.138917,-1.137144,-1.1423,-1.126027,-1.141817,-1.125543,-1.128121,-1.140367,-1.11507,-1.12941,-1.1365,-1.13215,-1.108142,-1.122321,-1.106531,-1.114265,-1.118776,-1.091869,-1.101858,-1.067055,-1.067217,-1.072856,-1.077367,-1.062705,-1.058677,-1.082362,-1.040792,-1.045787,-1.024841,-1.033219,-1.011951,-1.022263,-1.027097,-1.009051,-1.008084,-0.966997,-0.982949,-0.973604,-0.991005,-0.959586,-0.968609,-0.974893,-0.969092,-0.949274,-0.941057,-0.952335,-0.908026,-0.922044,-0.918821,-0.911571,-0.910443,-0.870484,-0.919305,-0.89707,-0.874512,-0.88273,-0.877735,-0.870806,-0.873546,-0.866295,-0.829075,-0.879024,-0.82972,-0.840193,-0.823114,-0.815058,-0.823919,-0.797012,-0.807807,-0.809579,-0.787344,-0.760437,-0.785572,-0.758825,-0.780416,-0.785894,-0.749319,-0.751414,-0.729662,-0.74513,-0.741263,-0.747386,-0.704688,-0.700176,-0.709199,-0.714355,-0.744485,-0.692442,-0.677941,-0.679875,-0.66634,-0.677458,-0.672141,-0.671335,-0.661184,-0.674557,-0.67343,-0.649583,-0.659412,-0.608335,-0.615425,-0.624609,-0.634438,-0.600602,-0.604952,-0.592868,-0.584167,-0.606724,-0.54018,-0.568377,-0.567088,-0.555003,-0.54163,-0.534218,-0.534702,-0.537924,-0.524551,-0.484592,-0.521812,-0.451401,-0.471541,-0.486042,-0.475247,-0.432388,-0.448339,-0.428843,-0.492326,-0.444472,-0.44705,-0.446567,-0.433194,-0.423687,-0.453173,-0.419176,-0.413214,-0.426265,-0.422237,-0.408864,-0.426749,-0.389529,-0.395974,-0.436416,-0.38534,-0.409992,-0.389207,-0.392268,-0.399841,-0.358593,-0.373094,-0.373578,-0.367938,-0.381151,-0.379056,-0.334102,-0.400485,-0.337486,-0.357788,-0.353759,-0.343125,-0.336197,-0.348281,-0.350054,-0.347476,-0.340708,-0.328785,-0.323307,-0.34812,-0.325079,-0.36246,-0.329107,-0.332652,-0.34377,-0.325402,-0.313478,-0.348765,-0.314767,-0.314606,-0.331363,-0.3022,-0.307839,-0.315412,-0.303811,-0.315573,-0.332813,-0.299461,-0.319762,-0.332652,-0.262724,-0.324918,-0.302039,-0.3051,-0.304778,-0.280126,-0.301072,-0.311062,-0.27932,-0.284154,-0.304133,-0.293821,-0.274325,-0.296077,-0.283187,-0.294788,-0.26353,-0.283832,-0.271103,-0.276581,-0.261274,-0.271264,-0.288988,-0.2392,-0.279642,-0.247901,-0.274809,-0.274164,-0.233883,-0.248707,-0.271747,-0.266914,-0.288021,-0.284637,-0.226149,-0.246612,-0.246612,-0.250801,-0.243712,-0.224055,-0.222604,-0.226955,-0.2392,-0.192958,-0.240167,-0.207298,-0.189735,-0.213904,-0.198597,-0.199886,-0.197952,-0.191185,-0.231788,-0.181034,-0.185224,-0.198758,-0.206009,-0.15606,-0.217448,-0.205686,-0.208425,-0.205364,-0.194247,-0.186029,-0.185868,-0.1704,-0.195858,-0.206331,-0.203753,-0.192796,-0.184257,-0.187963,-0.190863,-0.21342,-0.198758,-0.172011,-0.201497,-0.180068,-0.198114,-0.216965,-0.165889,-0.207942,-0.183451,-0.208103,-0.222604,-0.196502,-0.186029,-0.197952,-0.193924,-0.174428,-0.219221,-0.162344,-0.222927
 14:56:01.31035,-0.178456,-0.195858,-0.22631,-0.210037,-0.198436,-0.202464,-0.201819,-0.217771,-0.201658,-0.207298,-0.203592,-0.189413,-0.192152,-0.215837,-0.202464,-0.185546,-0.186996,-0.211003,-0.177167,-0.196502,-0.222604,-0.194408,-0.175395,-0.169111,-0.190218,-0.183935,-0.18474,-0.156705,-0.158155,-0.162344,-0.13737,-0.180068,-0.11159,-0.124802,-0.136725,-0.130764,-0.132536,-0.122546,-0.108528,-0.124963,-0.100956,-0.09435,-0.119485,-0.094672,-0.106112,-0.081137,-0.077431,-0.088549,-0.108206,-0.06712,-0.080171,-0.086777,-0.043918,-0.094672,-0.073403,-0.056324,-0.084199,-0.039406,-0.072114,-0.065347,-0.056002,-0.065025,-0.06293,-0.016849,-0.039728,-0.08436,-0.022005,-0.04569,-0.035056,-0.035217,-0.040051,-0.062608,-0.048912,-0.030705,-0.04424,-0.019749,-0.081137,-0.037312,-0.043918,-0.027,-0.011209,-0.022005,-0.030383,-0.009276,0.01167,-0.003959,0.036161,0.010704,-0.002186,0.05034,0.017954,0.044701,0.04035,0.043251,0.032778,0.045506,0.025849,0.067742,0.039384,0.011831,0.090943,0.050662,0.048568,0.076603,0.05469,0.067097,0.07032,0.064197,0.074509,0.035033,0.06323,0.090943,0.074187,0.065002,0.078376,0.081759,0.055818,0.057913,0.062908,0.078376,0.094005,0.061458,0.081115,0.088365,0.040995,0.11914,0.072575,0.096744,0.094166,0.118174,0.09336,0.140086,0.101578,0.089977,0.144115,0.101255,0.118657,0.127519,0.103028,0.113984,0.118979,0.098677,0.122685,0.113662,0.097872,0.122524,0.075314,0.08611,0.111084,0.094488,0.073542,0.107539,0.059041,0.073059,0.098355,0.047279,0.068869,0.069997,0.06613,0.077731,0.054368,0.068547,0.070158,0.031005,0.062747,0.042445,0.058557,0.014409,0.040834,0.060813,0.019888,0.053079,0.043895,0.05469,0.059524,0.045345,0.042284,0.031327,0.043251,0.025849,0.037611,0.042284,0.05743,0.05469,0.053724,0.054852,0.050501,0.054529,0.065969,0.050985,0.030844,0.072414,0.032939,0.067742,0.044379,0.042445,0.03165,0.065647,0.041801,0.034872,0.048084,0.019565,0.021499,0.043412,0.017954,0.028911,0.004903,0.008126,0.019888,0.047279,0.016665,0.01022,0.032294,0.045184,0.061458,-0.008954,0.02456,0.020532,0.023755,0.03745,0.042928,-0.000253,0.030683,0.054852,0.011831,0.029877,0.01731,0.027138,0.001842,0.027944,0.017471,0.020049,-0.009115,0.02021,0.011026,-0.020071,0.02311,-0.011209,0.00442,-0.020877,-0.044884,0.006514,-0.019266,-0.013948,-0.035056,-0.034411,-0.014754,-0.002992,-0.021521,-0.053102,-0.023455,-0.028289,-0.018138,-0.027805,-0.005248,-0.008954,0.007159,0.011026,-0.019427,0.044217,0.011026,0.047118,0.032616,0.043573,0.069675,0.08756,0.075314,0.108184,0.11914,0.135092,0.187779,0.13912,0.175856,0.203086,0.202442,0.231283,0.231444,0.222099,0.283487,0.309751,0.31104,0.357121,0.403525,0.387413,0.420443,0.452346,0.465236,0.494077,0.518085,0.532747,0.560138,0.583179,0.602514,0.630067,0.65633,0.683238,0.713207,0.742371,0.77089,0.805049,0.829862,0.865793,0.897534,0.919447,0.958118,0.97987,1.014995,1.035619,1.050765,1.079928,1.097813,1.107159,1.135033,1.144218,1.151791,1.163069,1.173059,1.164197,1.164842,1.148085,1.133583,1.109092,1.08154,1.046092,1.000171,0.94265,0.909458,0.832601,0.784747,0.718041,0.631678,0.552082,0.518085,0.417221,0.367433,0.314101,0.207114,0.151365,0.122685,0.054207,0.016665,-0.071792,-0.132375,-0.143331,-0.227599,-0.263691,-0.294466,-0.33378,-0.374867,-0.346348,-0.376639,-0.444956,-0.438672,-0.450434,-0.468158,-0.448178,-0.465257,-0.47992,-0.445117,-0.493454,-0.491521,-0.450917,-0.474603,-0.457201,-0.470574,-0.476375,-0.463324,-0.482498,-0.481692,-0.448017,-0.446567,-0.463324,-0.455268,-0.443989,-0.421915,-0.445922,-0.460101,-0.434805,-0.453173,-0.447373,-0.465902,-0.463646,-0.490715,-0.471058,-0.455912,-0.494904,-0.465418,-0.50151,-0.507311,-0.470091,-0.496354,-0.506666,-0.503927,-0.533735,-0.561448,-0.553876,-0.569021,-0.547431,-0.591417,-0.573372,-0.582072,-0.594318,-0.624126,-0.620742,-0.632343,-0.654739,-0.636854,-0.669563,-0.679552,-0.668113,-0.669563,-0.686158,-0.68632,-0.670852,-0.690831,-0.708394,-0.709521,-0.702754,-0.699693,-0.710005,-0.708232,-0.741585,-0.722411,-0.733851,-0.744163,-0.744969,-0.75093,-0.754636,-0.763176,-0.761726,-0.767526,-0.748352,-0.757536,-0.76672,-0.768976,-0.777193,-0.772843,-0.782511,-0.792178,-0.794756,-0.792339,-0.797978,-0.806196,-0.789761,-0.797978,-0.80684,-0.811835,-0.808613,-0.823597,-0.817152,-0.831814,-0.836165,-0.832781,-0.846638,-0.841482,-0.849538,-0.840676,-0.848732,-0.855339,-0.847605,-0.844704,-0.848732,-0.852599,-0.851794,-0.850344,-0.864039,-0.868067,-0.872579,-0.875157,-0.870484,-0.871612,-0.869679,-0.859206,-0.873546,-0.870323,-0.872901,-0.873546,-0.884502,-0.881763,-0.894975,-0.901098,-0.89562,-0.921722,-0.918016,-0.91431,-0.931872,-0.928167,-0.920916,-0.941218,-0.948629,-0.94589,-0.95298,-0.960875,-0.957975,-0.970059,-0.974409,-0.984721,-0.988588,-0.999061,-0.995678,-1.006634,-1.00889,-1.02033,-1.012596,-1.023713,-1.037248,-1.034347,-1.046109,-1.04627,-1.060933,-1.060611,-1.053843,-1.058999,-1.076078,-1.063511,-1.074145,-1.071084,-1.071084,-1.093802,-1.089129,-1.083973,-1.088807,-1.081234,-1.085585,-1.096219,-1.093158,-1.103147,-1.099441,-1.090096,-1.109592,-1.098958,-1.105242,-1.116521,-1.108464,-1.111687,-1.121676,-1.119421,-1.116521,-1.131183,-1.118132,-1.127799,-1.134244,-1.120065,-1.129733,-1.12071,-1.125221,-1.131022,-1.142139,-1.120871,-1.141334,-1.136178,-1.130055,-1.143912,-1.136661,-1.140367,-1.144878,-1.131505,-1.1365,-1.149229,-1.130216,-1.137144,-1.14375,-1.150034,-1.152129,-1.145523,-1.14375,-1.152612,-1.136339,-1.134083,-1.149068,-1.144717,-1.149551,-1.150195,-1.149229,-1.145845,-1.162441,-1.152935,-1.17098,-1.136822,-1.148262,-1.158896,-1.146167,-1.149551,-1.154546,-1.152451,-1.159218,-1.162924,-1.15229,-1.168241,-1.153901,-1.169208,-1.162441,-1.165824,-1.16083,-1.17098,-1.160185,-1.157446,-1.168241,-1.176781,-1.170336,-1.184515,-1.179037,-1.171786,-1.175492,-1.166952,-1.182581,-1.17517,-1.16373,-1.173397,-1.174525,-1.156318,-1.186126,-1.155513,-1.171464,-1.173397,-1.159541,-1.155513,-1.16663,-1.146006,-1.14649,-1.169853,-1.132311,-1.162119,-1.145523,-1.141656,-1.1423,-1.144395,-1.12071,-1.123127,-1.135855,-1.123288,-1.124577,-1.110237,-1.101697,-1.110881,-1.065928,-1.092352,-1.081073,-1.079945,-1.055455,-1.063027,-1.057388,-1.063511,-1.060288,-1.020652,-1.052554,-1.034508,-1.033058,-1.029997,-1.020491,-1.023069,-1.030158,-1.01034,-0.993261,-1.027902,-0.978437,-1.022424,-1.002123,-0.996322,-1.001639,-0.981821,-0.9989,-0.981015,-0.969253,-1.00744,-1.004217,-0.9989,-0.995033,-1.003734,-0.996644,-1.010501,-0.990199,-1.011629,-1.0047,-1.009856,-0.998256,-0.988749,-1.005345,-0.983271,-1.002445,-1.008729,-0.983271,-0.985527,-0.985366,-0.97876,-0.984882,-0.975698,-0.983754,-0.98746,-0.950885,-0.97022,-0.963292,-0.962003,-0.982465,-0.959908,-0.95588,-0.964581,-0.965386,-0.9272,-0.961036,-0.921561,-0.934128,-0.982465,-0.933323,-0.955719,-0.955235,-0.944279,-0.959908,-0.930422,-0.950079,-0.916888,-0.951691,-0.913827,-0.923977,-0.90432,-0.889497,-0.920594,-0.885147,-0.880152,-0.889336,-0.860656,-0.856466,-0.864523,-0.84986,-0.824886,-0.840676,-0.818441,-0.794756,-0.816991,-0.822469,-0.769459,-0.814413,-0.778321,-0.777999,-0.788794,-0.770265,-0.775421,-0.776227,-0.764626,-0.76382,-0.77381,-0.758503,-0.756408,-0.758986,-0.768009,-0.789922,-0.757859,-0.751414,-0.757697,-0.747869,-0.749641,-0.748836,-0.757214,-0.747547,-0.7208,-0.71081,-0.740296,-0.693731,-0.767687,-0.705332,-0.722089,-0.713711,-0.721606,-0.708716,-0.708394,-0.720478,-0.703076,-0.700015,-0.72934,-0.701949,-0.709521,-0.678424,-0.686158,-0.692926,-0.71645,-0.66924,-0.716127,-0.681002,-0.691637,-0.727567,-0.685997,-0.719028,-0.709038,-0.686964,-0.713549,-0.711938,-0.685836,-0.715483,-0.712905,-0.698082,-0.727245,-0.685031,-0.728212,-0.724023,-0.713872,-0.708877,-0.709682,-0.711294,-0.715805,-0.721122,-0.713066,-0.752703,-0.724989,-0.752219,-0.73369,-0.716289,-0.719511,-0.739813,-0.750608,-0.751575,-0.720317,-0.743841,-0.763015,-0.745613,-0.739168,-0.765431,-0.738685,-0.737235,-0.741263,-0.743519,-0.725795,-0.763981,-0.733207,-0.728856,-0.756892,-0.699693,-0.738846,-0.761887,-0.733045,-0.724345,-0.736268,-0.720961,-0.728534,-0.732079,-0.729501,-0.753669,-0.742391,-0.715322,-0.723378,-0.733045,-0.744002,-0.728695,-0.744485,-0.750447,-0.750608,-0.733368,-0.753186,-0.773971,-0.7179,-0.740779,-0.748836,-0.730467,-0.753669,-0.736429,-0.739007,-0.777355,-0.753508,-0.733045,-0.729662,-0.716611,-0.72789,-0.714516,-0.73369,-0.694537,-0.730306,-0.694376,-0.707105,-0.718705,-0.69067,-0.732723,-0.692603,-0.714838,-0.704688,-0.663762,-0.710488,-0.68632,-0.691153,-0.684547,-0.676813,-0.660701,-0.669563,-0.653934,-0.672946,-0.67069,-0.652806,-0.671657,-0.658445,-0.654417,-0.643783,-0.666985,-0.678747,-0.643783,-0.668596,-0.628637,-0.642655,-0.654739,-0.646522,-0.634438,-0.661023,-0.671979,-0.661184,-0.663601,-0.61478,-0.691637,-0.663118,-0.635565,-0.678586,-0.658767,-0.674396,-0.692281,-0.643299,-0.662151,-0.683742,-0.676974,-0.66054,-0.675685,-0.644911,-0.689059,-0.639916,-0.646361,-0.661829,-0.630893,-0.626543,-0.668596,-0.627509,-0.635727,-0.668274,-0.62187,-0.62767,-0.617197,-0.644588,-0.625576,-0.648133,-0.629282,-0.633471,-0.639755,-0.640399,-0.629765,-0.603824,-0.606563,-0.623642,-0.610752,-0.610913,-0.634599,-0.60463,-0.600924,-0.629765,-0.582233,-0.60044,-0.619775,-0.573049,-0.611236,-0.619292,-0.59754,-0.582717,-0.610108,-0.579817,-0.604952,-0.59029,-0.586584,-0.618164,-0.541308,-0.607852,-0.584006,-0.59029,-0.574338,-0.591417,-0.570955,-0.613814,-0.594801,-0.588356,-0.605113,-0.566121,-0.588839,-0.626059,-0.588034,-0.58755,-0.628315,-0.584973,-0.555326,-0.595123,-0.567893,-0.608335,-0.631054,-0.593351,-0.595446,-0.592545,-0.581267,-0.576594,-0.600602,-0.60608,-0.588839,-0.606241,-0.59174,-0.589806,-0.578689,-0.580139,-0.588517,-0.584167,-0.624287,-0.602213,-0.567088,-0.588195,-0.602374,-0.582072,-0.578366,-0.583845,-0.56161,-0.585939,-0.54308,-0.594801,-0.548236,-0.577883,-0.561126,-0.583039,-0.565315,-0.550009,-0.568054,-0.552103,-0.577561,-0.563865,-0.559515,-0.555487,-0.578366,-0.554359,-0.572888,-0.584811,-0.566927,-0.560965,-0.572566,-0.562899,-0.569988,-0.587712,-0.577239,-0.579978,-0.575305,-0.569666,-0.595607,-0.561448,-0.59609,-0.61043,-0.572566,-0.590934,-0.556937,-0.60044,-0.610108,-0.605113,-0.575788,-0.612686,-0.572244,-0.595284,-0.615586,-0.599151,-0.589001,-0.608013,-0.581428,-0.612847,-0.616553,-0.564026,-0.60463,-0.612525,-0.555326,-0.615747,-0.577883,-0.598507,-0.587067,-0.55887,-0.595284,-0.564188,-0.574822,-0.589967,-0.599796,-0.557581,-0.580139,-0.600279,-0.57321,-0.593029,-0.566443,-0.561126,-0.578366,-0.608013,-0.570794,-0.589323,-0.560482,-0.548881,-0.632665,-0.553392,-0.555487,-0.540825,-0.569182,-0.567571,-0.570149,-0.527129,-0.564188,-0.577722,-0.549203,-0.563382,-0.553553,-0.535669,-0.55887,-0.51585,-0.545658,-0.549203,-0.536313,-0.53873,-0.567732,-0.519556,-0.546947,-0.529385,-0.49716,-0.567893,-0.549203,-0.526484,-0.542758,-0.540825,-0.512789,-0.549364,-0.525357,-0.531157,-0.553714,-0.529062,-0.53164,-0.531157,-0.540019,-0.525195,-0.541952,-0.535507,-0.561771,-0.570471,-0.545175,-0.543241,-0.553714,-0.530835,-0.577883,-0.544047,-0.524551,-0.542919,-0.553392,-0.541791,-0.566121,-0.515367,-0.507472,-0.561448,-0.494421,-0.529224,-0.510372,-0.527129,-0.50715,-0.535991,-0.518912,-0.540825,-0.499738,-0.506666,-0.555487,-0.492971,-0.491198,-0.516495,-0.508922,-0.529868,-0.536635,-0.499899,-0.526807,-0.529385,-0.488459,-0.509566,-0.511822,-0.499416,-0.551459,-0.538085,-0.553553,-0.530835,-0.554359,-0.55887,-0.568216,-0.559515,-0.556776,-0.595446,-0.57321,-0.593512,-0.600279,-0.555809,-0.586745,-0.600763,-0.588839,-0.604791,-0.610591,-0.588839,-0.609947,-0.607046,-0.595446,-0.627026,-0.605435,-0.622192,-0.617842,-0.618647,-0.603502,-0.638305,-0.599151,-0.620742,-0.644588,-0.611558,-0.639271,-0.601407,-0.632182,-0.617681,-0.602857,-0.639594,-0.650067,-0.614136,-0.648294,-0.652645,-0.649905,-0.673752,-0.661184,-0.655867,-0.665212,-0.688736,-0.670529,-0.696954,-0.721928,-0.661345,-0.703399,-0.720961,-0.667629,-0.706782,-0.681808,-0.705493,-0.703721,-0.698404,-0.693892,-0.717739,-0.698726,-0.687609,-0.707266,-0.666018,-0.71935,-0.707105,-0.70936,-0.69647,-0.691153,-0.722411,-0.731595,-0.717578,-0.681969,-0.734979,-0.696631,-0.708877,-0.714677,-0.660056,-0.717255,-0.705654,-0.686158,-0.721767,-0.690186,-0.673752,-0.695504,-0.686642,-0.672785,-0.676813,-0.66054,-0.688253,-0.678747,-0.680358,-0.641849,-0.669079,-0.655384,-0.658606,-0.653772,-0.63766,-0.642816,-0.656834,-0.638305,-0.613169,-0.636854,-0.625092,-0.622998,-0.646683,-0.628154,-0.597379,-0.614136,-0.592868,-0.625415,-0.601407,-0.583684,-0.599313,-0.56596,-0.574822,-0.573372,-0.531479,-0.53728,-0.577239,-0.527773,-0.544047,-0.544853,-0.52149,-0.538085,-0.523745,-0.539697,-0.529546,-0.512144,-0.529062,-0.53873,-0.488459,-0.543403,-0.549203,-0.550814,-0.567571,-0.521006,-0.548881,-0.530996,-0.551298,-0.548075,-0.530674,-0.545819,-0.564832,-0.540986,-0.548397,-0.547108,-0.544691,-0.552264,-0.519556,-0.531479,-0.494904,-0.523101,-0.529062,-0.462518,-0.489748,-0.472669,-0.470897,-0.443667,-0.41692,-0.400647,-0.410959,-0.39259,-0.385018,-0.364877,-0.313962,-0.326529,-0.289954,-0.277064,-0.249512,-0.213904,-0.174267,-0.205203,-0.134469,-0.098861,-0.077915,-0.031511,-0.003475,0.025688,0.086754,0.111245,0.166994,0.196641,0.233055,0.290577,0.33972,0.385479,0.397402,0.473292,0.488116,0.529525,0.559977,0.584629,0.613954,0.645051,0.671959,0.703862,0.731737,0.759289,0.790547,0.81665,0.839368,0.868048,0.882711,0.902368,0.920736,0.923314,0.930404,0.932176,0.922831,0.919286,0.890767,0.847908,0.828089,0.770407,0.720297,0.679049,0.607187,0.55321,0.490532,0.400464,0.359216,0.312812,0.195513,0.155232,0.077892,-0.02845,-0.031511,-0.089355,-0.174751,-0.218576,-0.302683,-0.343609,-0.368744,-0.423848,-0.469608,-0.508116,-0.572566,-0.551459,-0.574661,-0.625576,-0.606724,-0.63621,-0.6491,-0.665373,-0.674396,-0.672141,-0.630571,-0.657801,-0.642977,-0.660379,-0.630893,-0.639594,-0.62767,-0.620581,-0.611397,-0.556292,-0.59029,-0.576755,-0.598507,-0.571921,-0.567249,-0.55162,-0.54453,-0.556615,-0.542919,-0.542758,-0.526807,-0.548558,-0.549364,-0.545658,-0.529224,-0.552748,-0.549042,-0.553553,-0.536796,-0.526968,-0.548236,-0.546464,-0.547914,-0.549686,-0.507794,-0.554842,-0.563221,-0.557259,-0.544047,-0.533091,-0.544369,-0.533735,-0.549042,-0.547269,-0.564993,-0.529062,-0.544208,-0.544208,-0.539536,-0.577561,-0.550492,-0.564671,-0.559837,-0.586745,-0.56306,-0.573049,-0.571921,-0.565315,-0.581911,-0.600763,-0.567732,-0.592062,-0.583522,-0.570794,-0.620581,-0.612202,-0.600763,-0.63186,-0.603663,-0.628959,-0.643944,-0.634921,-0.647005,-0.679875,-0.658928,-0.654578,-0.665696,-0.641044,-0.696793,-0.674396,-0.690186,-0.71081,-0.689864,-0.714033,-0.713066,-0.709038,-0.727406,-0.705332,-0.718383,-0.747063,-0.726601,-0.729662,-0.746419,-0.724184,-0.744324,-0.748836,-0.736912,-0.746258,-0.751897,-0.745452,-0.745291,-0.764142,-0.757697,-0.760598,-0.74658,-0.757536,-0.75657,-0.769137,-0.762209,-0.786539,-0.789761,-0.771393,-0.777193,-0.783961,-0.802812,-0.782188,-0.801523,-0.812963,-0.802329,-0.821986,-0.840032,-0.82972,-0.821019,-0.833426,-0.82972,-0.833909,-0.842126,-0.838421,-0.835359,-0.837293,-0.838743,-0.837132,-0.832942,-0.843899,-0.840676,-0.841804,-0.835681,-0.842288,-0.823275,-0.847282,-0.828109,-0.83697,-0.829236,-0.798623,-0.820858,-0.789439,-0.828592,-0.808451,-0.791695,-0.814091,-0.825047,-0.787828,-0.791211,-0.813769,-0.816991,-0.778966,-0.798301,-0.793145,-0.805551,-0.77091,-0.808129,-0.788472,-0.79959,-0.820052,-0.820052,-0.796851,-0.819247,-0.826175,-0.803134,-0.83971,-0.831009,-0.845671,-0.842126,-0.849538,-0.845349,-0.865973,-0.876768,-0.878218,-0.877574,-0.881441,-0.88998,-0.882569,-0.892719,-0.900614,-0.878218,-0.894814,-0.890141,-0.889497,-0.900937,-0.884502,-0.896586,-0.890141,-0.900131,-0.916566,-0.889819,-0.903676,-0.902548,-0.901098,-0.906576,-0.903515,-0.896586,-0.915438,-0.912376,-0.920755,-0.911087,-0.908187,-0.919466,-0.924139,-0.916243,-0.926555,-0.917532,-0.924944,-0.935095,-0.903676,-0.939284,-0.937995,-0.937351,-0.952174,-0.929294,-0.952496,-0.950885,-0.955397,-0.948307,-0.952819,-0.949113,-0.955719,-0.959264,-0.954269,-0.973765,-0.948629,-0.963614,-0.964097,-0.968931,-0.960714,-0.93445,-0.968125,-0.95733,-0.949435,-0.958297,-0.946212,-0.94154,-0.93864,-0.938479,-0.941862,-0.924622,-0.92011,-0.942829,-0.895297,-0.909154,-0.901903,-0.88853,-0.876607,-0.902709,-0.901259,-0.892075,-0.852116,-0.85131,-0.858722,-0.868873,-0.851472,-0.849699,-0.869356,-0.857917,-0.833426,-0.84406,-0.838743,-0.826497,-0.852922,-0.829881,-0.834554,-0.817958,-0.82118,-0.817313,-0.811835,-0.813124,-0.824564,-0.79105,-0.824081,-0.788633,-0.79395,-0.79105,-0.765431,-0.768493,-0.787989,-0.760114,-0.768493,-0.762692,-0.729017,-0.73659,-0.757214,-0.737879,-0.769459,-0.717416,-0.723217,-0.721767,-0.705977,-0.715805,-0.699854,-0.720961,-0.684547,-0.680841,-0.687447,-0.657478,-0.685836,-0.651194,-0.659573,-0.668435,-0.660701,-0.648294,-0.67633,-0.653128,-0.641527,-0.674074,-0.651517,-0.629926,-0.6462,-0.633632,-0.650228,-0.655706,-0.616392,-0.642494,-0.651033,-0.633632,-0.660862,-0.650389,-0.642172,-0.686642,-0.620098,-0.677135,-0.671335,-0.648616,-0.675685,-0.669885,-0.667951,-0.672785,-0.676491,-0.658445,-0.700982,-0.662151,-0.647328,-0.689864,-0.648294,-0.657478,-0.69357,-0.656512,-0.66779,-0.658767,-0.669563,-0.703882,-0.685353,-0.653289,-0.698887,-0.687447,-0.675685,-0.659573,-0.689542,-0.64201,-0.671335,-0.669724,-0.622353,-0.677941,-0.660379,-0.655384,-0.644427,-0.644105,-0.629765,-0.637821,-0.637982,-0.612847,-0.617681,-0.614297,-0.615908,-0.613653,-0.61188,-0.600279,-0.597701,-0.587712,-0.60608,-0.584811,-0.604791,-0.596412,-0.599474,-0.572566,-0.601568,-0.556615,-0.574983,-0.589645,-0.572888,-0.58175,-0.580139,-0.532607,-0.582233,-0.545336,-0.540502,-0.601246,-0.513272,-0.559032,-0.584167,-0.545014,-0.551942,-0.536152,-0.530351,-0.548075,-0.538408,-0.520201,-0.564349,-0.527129,-0.522134,-0.525195,-0.526484,-0.552103,-0.526323,-0.536635,-0.511661,-0.522134,-0.531479,-0.552748,-0.53728,-0.520523,-0.524712,-0.512467,-0.518428,-0.53164,-0.5115,-0.503121,-0.520362,-0.5086,-0.501994,-0.512467,-0.477019,-0.513595,-0.506183,-0.511339,-0.461229,-0.474603,-0.472669,-0.480886,-0.489909,-0.421109,-0.45704,-0.461874,-0.431582,-0.457201,-0.452367,-0.434966,-0.446245,-0.461874,-0.407414,-0.444956,-0.438027,-0.419498,-0.45994,-0.401291,-0.426426,-0.451723,-0.438027,-0.435127,-0.431744,-0.430132,-0.455912,-0.448339,-0.411764,-0.463646,-0.436738,-0.436255,-0.4485,-0.437061,-0.456073,-0.431905,-0.412086,-0.452206,-0.444311,-0.405641,-0.453818,-0.455751,-0.423687,-0.460585,-0.464452,-0.424171,-0.448178,-0.463485,-0.465902,-0.464291,-0.420787,-0.45994,-0.5086,-0.447856,-0.488137,-0.465902,-0.443022,-0.485237,-0.513433,-0.452851,-0.519556,-0.495226,-0.487331,-0.513756,-0.509405,-0.50441,-0.507472,-0.456234,-0.487654,-0.480081,-0.489104,-0.485076,-0.472347,-0.494582,-0.473797,-0.51005,-0.483948,-0.501027,-0.477181,-0.460424,-0.484914,-0.501188,-0.457685,-0.49716,-0.50296,-0.465741,-0.51295,-0.443828,-0.496032,-0.490554,-0.457846,-0.505861,-0.522295,-0.430455,-0.500221,-0.493132,-0.456557,-0.496193,-0.496354,-0.486687,-0.514561,-0.47283,-0.48427,-0.49716,-0.504088,-0.495065,-0.493132,-0.483787,-0.495549,-0.503605,-0.489909,-0.535991,-0.497482,-0.477986,-0.514078,-0.513272,-0.498449,-0.513756,-0.528418,-0.510694,-0.530674,-0.502316,-0.508277,-0.534057,-0.489426,-0.516978,-0.505861,-0.508116,-0.549847,-0.527773,-0.511339,-0.54453,-0.523745,-0.497966,-0.556454,-0.484914,-0.5144,-0.511661,-0.508439,-0.509405,-0.524551,-0.482659,-0.479597,-0.539536,-0.464129,-0.530835,-0.516817,-0.458974,-0.518267
 14:56:02.30941,-0.487654,-0.488298,-0.527451,-0.474603,-0.470413,-0.516817,-0.475408,-0.504894,-0.508277,-0.486848,-0.513433,-0.502316,-0.465741,-0.489909,-0.49281,-0.475086,-0.515528,-0.48137,-0.474603,-0.514884,-0.471863,-0.476858,-0.472347,-0.491359,-0.473475,-0.479114,-0.466385,-0.445439,-0.491843,-0.472025,-0.479114,-0.472025,-0.478147,-0.503766,-0.49281,-0.457362,-0.480564,-0.506344,-0.496677,-0.498932,-0.484753,-0.475408,-0.500866,-0.488781,-0.496838,-0.503605,-0.48427,-0.503927,-0.53019,-0.499899,-0.529224,-0.490876,-0.472025,-0.521651,-0.476375,-0.513272,-0.495065,-0.497643,-0.498127,-0.537763,-0.493615,-0.50006,-0.544369,-0.476053,-0.513756,-0.525679,-0.502799,-0.5173,-0.489104,-0.500382,-0.509083,-0.453334,-0.503283,-0.506022,-0.482498,-0.505861,-0.468802,-0.482175,-0.514078,-0.529062,-0.472347,-0.530351,-0.519073,-0.488298,-0.536152,-0.522134,-0.503927,-0.510372,-0.48137,-0.537119,-0.511178,-0.505216,-0.513756,-0.545336,-0.511017,-0.512467,-0.558548,-0.502316,-0.55742,-0.53164,-0.526646,-0.564671,-0.528579,-0.549364,-0.585617,-0.557581,-0.56306,-0.551298,-0.530351,-0.574983,-0.569505,-0.532929,-0.573372,-0.567893,-0.545658,-0.562737,-0.551136,-0.538408,-0.538891,-0.561126,-0.557904,-0.574499,-0.561126,-0.549686,-0.559354,-0.57321,-0.563543,-0.563382,-0.56161,-0.548558,-0.579817,-0.523101,-0.553231,-0.545175,-0.550009,-0.573049,-0.569021,-0.570955,-0.573049,-0.587228,-0.568699,-0.589645,-0.574338,-0.590934,-0.598346,-0.562254,-0.582878,-0.574983,-0.563704,-0.577722,-0.53583,-0.565315,-0.576272,-0.558226,-0.547914,-0.542436,-0.545497,-0.558065,-0.550975,-0.520845,-0.508761,-0.525195,-0.499255,-0.532607,-0.528096,-0.511661,-0.514239,-0.496354,-0.511822,-0.516173,-0.506022,-0.497804,-0.508439,-0.510211,-0.486365,-0.524712,-0.484914,-0.489426,-0.491037,-0.52004,-0.511983,-0.518267,-0.530996,-0.512628,-0.506666,-0.506344,-0.496354,-0.531157,-0.483948,-0.509728,-0.513111,-0.49281,-0.499577,-0.537763,-0.48717,-0.49571,-0.512628,-0.516978,-0.490393,-0.472347,-0.493776,-0.497966,-0.491682,-0.475247,-0.472186,-0.449951,-0.472669,-0.449789,-0.443183,-0.429649,-0.419498,-0.400002,-0.429166,-0.396618,-0.39259,-0.381956,-0.393235,-0.381634,-0.373255,-0.361977,-0.341675,-0.372611,-0.340386,-0.351343,-0.339097,-0.340064,-0.340225,-0.337969,-0.322501,-0.340547,-0.32524,-0.340386,-0.371,-0.321051,-0.354726,-0.321857,-0.32943,-0.346992,-0.318796,-0.327174,-0.355532,-0.326529,-0.325724,-0.356337,-0.326368,-0.337808,-0.368583,-0.309934,-0.355693,-0.345542,-0.335552,-0.34087,-0.352954,-0.34232,-0.350054,-0.363427,-0.322501,-0.368583,-0.335714,-0.322018,-0.35521,-0.336036,-0.350859,-0.35102,-0.306228,-0.37825,-0.373578,-0.351181,-0.360366,-0.349892,-0.354887,-0.357304,-0.350376,-0.365683,-0.393557,-0.361977,-0.39823,-0.38679,-0.386629,-0.397585,-0.400485,-0.407736,-0.397424,-0.407253,-0.426426,-0.406125,-0.433516,-0.414826,-0.377928,-0.452851,-0.418209,-0.441089,-0.428521,-0.413698,-0.458651,-0.435127,-0.424171,-0.460907,-0.445278,-0.452529,-0.477181,-0.463163,-0.44415,-0.463163,-0.438511,-0.46284,-0.455751,-0.466707,-0.452851,-0.484431,-0.442539,-0.474925,-0.486687,-0.469608,-0.47283,-0.452367,-0.45849,-0.471219,-0.480081,-0.484431,-0.489587,-0.472508,-0.491843,-0.476697,-0.480403,-0.481692,-0.483787,-0.466546,-0.473314,-0.487331,-0.500705,-0.479114,-0.48282,-0.467835,-0.479759,-0.510855,-0.487492,-0.50006,-0.467191,-0.505861,-0.498771,-0.515045,-0.492165,-0.493293,-0.475892,-0.483948,-0.510211,-0.47138,-0.497643,-0.505538,-0.505216,-0.510694,-0.513111,-0.508116,-0.504572,-0.510855,-0.533413,-0.544208,-0.525034,-0.557904,-0.534541,-0.537763,-0.55887,-0.550975,-0.559515,-0.560965,-0.56596,-0.553714,-0.570794,-0.587873,-0.56451,-0.603824,-0.626059,-0.596896,-0.603663,-0.613653,-0.612364,-0.602374,-0.62477,-0.613814,-0.633149,-0.609786,-0.595123,-0.609463,-0.61333,-0.587389,-0.608174,-0.584973,-0.581106,-0.587712,-0.541147,-0.54018,-0.547269,-0.521329,-0.529224,-0.452206,-0.497966,-0.479597,-0.474925,-0.446889,-0.432066,-0.406286,-0.397585,-0.403708,-0.362944,-0.376156,-0.315895,-0.324274,-0.268203,-0.251929,-0.216804,-0.201497,-0.176845,-0.12593,-0.123674,-0.055035,-0.072759,-0.026516,0.013282,0.068869,0.096583,0.131869,0.188907,0.190841,0.254324,0.294444,0.314101,0.369044,0.403203,0.424471,0.473614,0.505356,0.543381,0.569645,0.595425,0.612665,0.634739,0.646179,0.659875,0.669381,0.664547,0.67357,0.662453,0.651013,0.646179,0.623461,0.582213,0.583985,0.498266,0.456857,0.4401,0.345681,0.304595,0.26673,0.149915,0.116401,0.023916,-0.046979,-0.098217,-0.180873,-0.277387,-0.299944,-0.402741,-0.452851,-0.526968,-0.597057,-0.633149,-0.679875,-0.750125,-0.811513,-0.832298,-0.865328,-0.876124,-0.913665,-0.923977,-0.933484,-0.952174,-0.98311,-0.984238,-0.993261,-1.005667,-1.003573,-1.020168,-1.035475,-1.029514,-1.039181,-1.044176,-1.04047,-1.042887,-1.026291,-1.024035,-1.029997,-1.02758,-1.008245,-1.013723,-0.98601,-0.993261,-0.964903,-0.987782,-0.952657,-0.971831,-0.933,-0.939123,-0.928328,-0.881118,-0.924461,-0.885469,-0.894169,-0.882569,-0.908832,-0.870323,-0.890786,-0.866295,-0.883374,-0.850344,-0.862267,-0.882085,-0.846477,-0.873062,-0.865489,-0.841321,-0.865973,-0.874996,-0.830687,-0.859206,-0.855016,-0.860495,-0.848571,-0.861461,-0.851472,-0.864845,-0.835681,-0.880474,-0.840676,-0.873062,-0.85405,-0.870645,-0.880796,-0.870968,-0.886113,-0.864039,-0.890141,-0.87274,-0.874835,-0.900292,-0.886758,-0.907059,-0.896425,-0.894653,-0.91141,-0.923333,-0.923977,-0.931872,-0.923172,-0.904804,-0.96023,-0.946212,-0.948952,-0.953946,-0.957652,-0.955235,-0.954269,-0.957975,-0.959586,-0.970059,-0.962164,-0.970059,-0.978437,-0.990199,-0.982465,-0.973765,-0.991649,-0.973926,-1.005667,-0.991811,-0.993583,-1.015335,-1.009856,-1.013079,-1.020813,-0.999545,-1.010018,-1.015657,-1.018396,-1.032253,-1.026291,-1.031125,-1.036281,-1.024035,-1.033864,-1.038214,-1.040309,-1.039503,-1.033542,-1.028869,-1.039664,-1.057871,-1.034025,-1.056582,-1.044337,-1.042565,-1.045304,-1.054166,-1.04337,-1.051265,-1.050621,-1.025485,-1.055777,-1.029836,-1.041759,-1.035636,-1.03467,-1.046593,-1.047237,-1.048365,-1.035314,-1.031286,-1.042242,-1.038053,-1.029836,-1.045787,-1.035636,-1.020813,-1.041437,-1.012596,-1.031447,-1.028708,-1.034831,-1.041759,-1.019363,-1.019041,-1.024035,-1.035636,-1.014851,-1.026774,-1.030641,-1.049171,-1.023391,-1.029514,-1.046754,-1.02178,-1.054971,-1.034992,-1.051749,-1.057227,-1.032092,-1.035314,-1.039664,-1.044981,-1.057066,-1.039664,-1.041115,-1.056905,-1.039664,-1.054971,-1.039987,-1.021457,-1.033058,-1.008406,-1.02323,-1.022424,-1.013723,-1.022746,-1.015979,-1.016785,-1.010501,-1.018718,-0.984077,-1.014368,-0.988588,-1.012434,-0.994711,-1.009373,-0.987621,-0.970864,-0.994872,-0.971026,-0.997772,-0.985849,-0.966192,-0.970381,-0.948146,-0.954108,-0.945085,-0.956847,-0.940734,-0.947018,-0.910765,-0.935578,-0.916888,-0.903515,-0.903192,-0.883535,-0.89997,-0.891269,-0.856789,-0.845671,-0.87419,-0.831492,-0.866617,-0.851149,-0.827625,-0.847766,-0.801684,-0.815219,-0.802651,-0.797817,-0.807485,-0.811996,-0.796689,-0.769782,-0.811996,-0.770748,-0.787344,-0.791856,-0.759953,-0.777355,-0.768009,-0.751897,-0.740135,-0.769782,-0.707266,-0.755442,-0.740296,-0.748191,-0.733045,-0.701949,-0.734818,-0.747224,-0.682291,-0.704365,-0.713711,-0.694859,-0.697276,-0.671335,-0.666501,-0.696309,-0.657639,-0.695342,-0.665051,-0.659412,-0.657801,-0.648294,-0.6462,-0.642333,-0.66054,-0.605758,-0.658767,-0.635727,-0.623481,-0.624609,-0.61752,-0.620581,-0.607369,-0.624126,-0.598185,-0.617842,-0.577077,-0.615103,-0.612847,-0.568054,-0.583361,-0.601891,-0.577722,-0.598185,-0.611397,-0.558226,-0.609141,-0.582395,-0.574177,-0.590451,-0.575788,-0.594479,-0.573533,-0.577722,-0.572888,-0.581911,-0.545014,-0.56886,-0.550009,-0.544369,-0.546947,-0.549203,-0.549203,-0.559032,-0.53438,-0.536313,-0.524229,-0.556454,-0.531318,-0.533574,-0.529224,-0.5173,-0.530029,-0.521167,-0.515528,-0.506988,-0.542436,-0.532446,-0.53873,-0.509566,-0.522295,-0.534702,-0.530351,-0.554842,-0.518267,-0.530513,-0.510533,-0.552264,-0.51295,-0.523262,-0.557259,-0.516173,-0.521651,-0.52149,-0.527935,-0.530674,-0.526162,-0.495226,-0.53438,-0.539052,-0.509244,-0.560482,-0.519234,-0.541952,-0.55742,-0.530996,-0.573372,-0.556776,-0.54018,-0.532446,-0.579655,-0.55742,-0.566443,-0.548236,-0.539697,-0.55307,-0.557743,-0.574661,-0.540663,-0.56596,-0.57321,-0.55742,-0.56161,-0.550814,-0.574661,-0.576272,-0.564188,-0.543886,-0.569505,-0.540986,-0.55597,-0.541308,-0.557581,-0.555165,-0.519234,-0.588839,-0.529385,-0.540502,-0.550975,-0.544047,-0.54872,-0.574822,-0.544047,-0.552587,-0.551942,-0.536474,-0.563543,-0.554842,-0.542275,-0.562254,-0.559032,-0.560804,-0.552103,-0.539374,-0.561932,-0.581267,-0.564671,-0.552748,-0.592384,-0.552587,-0.5861,-0.56596,-0.577077,-0.572083,-0.579978,-0.546947,-0.611075,-0.572083,-0.578044,-0.610108,-0.586906,-0.576755,-0.569505,-0.576433,-0.595123,-0.584167,-0.588517,-0.587873,-0.597701,-0.558709,-0.574177,-0.586745,-0.562415,-0.601085,-0.571277,-0.582233,-0.573694,-0.603341,-0.528257,-0.568699,-0.573049,-0.532446,-0.578366,-0.560321,-0.548236,-0.553392,-0.562093,-0.551781,-0.555326,-0.526807,-0.564349,-0.562254,-0.565799,-0.575305,-0.527451,-0.534218,-0.563382,-0.517784,-0.571599,-0.568538,-0.548236,-0.532929,-0.569505,-0.54163,-0.572727,-0.556615,-0.539536,-0.563221,-0.560643,-0.552909,-0.583039,-0.557904,-0.559676,-0.595929,-0.590773,-0.562254,-0.591256,-0.588517,-0.592706,-0.579172,-0.576755,-0.607691,-0.569182,-0.565154,-0.576111,-0.559837,-0.57595,-0.600602,-0.57595,-0.582072,-0.588839,-0.594318,-0.561287,-0.581589,-0.562899,-0.557743,-0.578044,-0.552748,-0.556292,-0.572083,-0.530996,-0.600279,-0.548397,-0.549847,-0.605758,-0.56596,-0.543241,-0.599796,-0.559676,-0.566282,-0.580783,-0.537602,-0.582072,-0.562576,-0.562415,-0.560804,-0.581589,-0.538408,-0.588195,-0.560321,-0.538085,-0.589484,-0.512467,-0.561287,-0.573533,-0.546464,-0.567088,-0.554037,-0.547108,-0.570955,-0.550653,-0.532607,-0.537602,-0.550009,-0.526968,-0.56306,-0.548236,-0.536796,-0.545336,-0.53728,-0.51585,-0.539374,-0.495065,-0.529062,-0.554037,-0.500221,-0.51005,-0.523906,-0.484592,-0.489748,-0.508116,-0.476858,-0.509566,-0.477342,-0.474925,-0.506183,-0.476375,-0.479275,-0.520362,-0.481853,-0.468641,-0.505538,-0.474119,-0.483948,-0.518106,-0.464935,-0.48572,-0.480403,-0.468158,-0.496999,-0.478147,-0.483303,-0.50296,-0.495226,-0.515528,-0.509405,-0.466707,-0.50151,-0.52584,-0.476697,-0.501833,-0.499416,-0.450273,-0.482981,-0.482981,-0.465741,-0.492165,-0.492004,-0.462518,-0.483464,-0.482659,-0.492326,-0.476053,-0.496999,-0.469769,-0.477181,-0.474119,-0.482175,-0.499093,-0.482981,-0.47992,-0.470897,-0.459457,-0.468963,-0.49007,-0.454301,-0.457846,-0.453334,-0.458974,-0.483303,-0.446245,-0.457846,-0.470736,-0.443667,-0.446084,-0.462679,-0.440444,-0.456234,-0.480403,-0.436416,-0.466224,-0.462035,-0.436738,-0.460262,-0.417887,-0.466707,-0.445922,-0.455751,-0.444472,-0.459135,-0.422559,-0.470413,-0.470574,-0.456073,-0.470736,-0.466224,-0.455912,-0.483625,-0.468802,-0.455268,-0.496032,-0.45994,-0.478147,-0.495226,-0.437383,-0.466707,-0.52729,-0.444795,-0.494099,-0.475086,-0.448339,-0.487815,-0.470252,-0.443667,-0.491037,-0.454462,-0.415148,-0.484592,-0.455268,-0.447373,-0.458168,-0.453818,-0.443506,-0.45269,-0.436094,-0.452045,-0.448017,-0.445922,-0.459457,-0.437705,-0.448017,-0.423687,-0.455268,-0.450756,-0.452206,-0.447856,-0.449306,-0.477503,-0.462196,-0.424976,-0.483303,-0.4369,-0.453495,-0.456879,-0.443667,-0.46848,-0.456073,-0.439477,-0.480564,-0.448017,-0.435933,-0.468641,-0.427393,-0.433355,-0.468963,-0.443828,-0.452367,-0.468641,-0.425782,-0.45849,-0.470897,-0.433194,-0.460907,-0.456234,-0.440444,-0.488298,-0.454945,-0.430777,-0.466224,-0.453173,-0.456557,-0.461229,-0.460424,-0.452206,-0.495065,-0.463807,-0.470252,-0.456718,-0.473797,-0.500866,-0.47847,-0.45849,-0.467513,-0.482498,-0.492971,-0.499416,-0.495388,-0.483787,-0.501027,-0.481692,-0.492004,-0.496354,-0.462518,-0.460424,-0.500866,-0.48862,-0.460746,-0.482659,-0.478147,-0.472186,-0.483142,-0.470574,-0.482175,-0.450273,-0.446889,-0.475086,-0.416437,-0.432227,-0.48572,-0.438511,-0.442217,-0.426588,-0.445278,-0.417726,-0.46558,-0.418048,-0.412892,-0.397585,-0.415148,-0.434966,-0.373578,-0.392107,-0.420465,-0.360527,-0.41692,-0.400969,-0.354565,-0.403225,-0.390979,-0.399519,-0.415792,-0.381956,-0.384051,-0.396457,-0.373094,-0.368422,-0.379378,-0.380184,-0.376639,-0.399841,-0.377122,-0.399519,-0.398069,-0.385662,-0.424815,-0.406608,-0.395491,-0.409992,-0.43126,-0.384212,-0.420948,-0.40403,-0.392913,-0.439155,-0.409186,-0.422237,-0.387434,-0.390496,-0.413053,-0.433194,-0.386951,-0.437705,-0.422398,-0.391946,-0.424815,-0.388401,-0.3797,-0.441089,-0.400969,-0.38679,-0.401774,-0.379862,-0.392429,-0.386307,-0.375511,-0.400969,-0.388401,-0.377445,-0.396618,-0.344737,-0.368905,-0.391463,-0.403547,-0.395168,-0.380506,-0.375028,-0.396135,-0.413537,-0.371483,-0.399035,-0.397102,-0.397424,-0.392429,-0.408058,-0.39259,-0.396457,-0.423526,-0.405964,-0.420465,-0.408864,-0.403708,-0.428521,-0.452045,-0.441572,-0.450595,-0.452206,-0.439639,-0.458007,-0.436577,-0.421593,-0.470413,-0.438833,-0.451078,-0.437544,-0.446567,-0.464613,-0.453495,-0.415148,-0.451562,-0.454623,-0.410475,-0.475892,-0.425137,-0.422398,-0.451562,-0.429971,-0.431744,-0.466063,-0.402419,-0.444956,-0.435449,-0.422559,-0.44705,-0.449628,-0.403225,-0.473152,-0.418209,-0.443506,-0.46703,-0.429327,-0.425299,-0.476375,-0.444472,-0.451884,-0.490393,-0.453495,-0.464452,-0.448662,-0.425621,-0.46139,-0.462035,-0.45849,-0.469447,-0.450595,-0.454462,-0.470252,-0.456234,-0.461229,-0.483303,-0.446567,-0.475086,-0.464935,-0.440928,-0.490715,-0.43835,-0.409831,-0.431905,-0.4427,-0.419981,-0.444633,-0.433838,-0.423848,-0.428843,-0.425782,-0.413698,-0.457201,-0.408219,-0.392752,-0.436738,-0.406125,-0.401291,-0.401774,-0.349087,-0.395329,-0.404191,-0.39678,-0.373417,-0.3797,-0.355532,-0.402258,-0.385823,-0.342964,-0.369711,-0.339581,-0.36536,-0.377445,-0.359399,-0.351504,-0.378895,-0.363749,-0.372772,-0.38824,-0.346831,-0.371805,-0.37245,-0.3681,-0.338936,-0.35666,-0.353276,-0.34957,-0.372772,-0.343931,-0.337164,-0.318634,-0.361655,-0.310578,-0.332491,-0.35247,-0.336841,-0.330396,-0.327174,-0.332813,-0.328785,-0.315251,-0.337486,-0.316701,-0.346026,-0.301877,-0.334586,-0.327818,-0.320407,-0.329591,-0.323146,-0.317023,-0.280931,-0.325402,-0.291404,-0.308806,-0.29221,-0.27207,-0.276581,-0.305744,-0.279965,-0.285926,-0.289471,-0.254024,-0.273842,-0.236944,-0.255796,-0.233239,-0.211326,-0.234689,-0.225666,-0.177812,-0.167983,-0.17185,-0.145426,-0.150421,-0.142042,-0.103211,-0.130764,-0.086293,-0.093544,-0.062769,-0.044401,-0.047301,-0.025549,-0.013465,0.045184,0.029394,0.058719,0.076442,0.099966,0.150237,0.155393,0.200991,0.223066,0.239017,0.278976,0.369206,0.377906,0.391441,0.453474,0.458952,0.5031,0.540159,0.554338,0.581568,0.607831,0.625716,0.652141,0.680015,0.698867,0.730448,0.74946,0.772179,0.800859,0.8181,0.841463,0.857575,0.871432,0.885933,0.890606,0.891734,0.884161,0.879488,0.870949,0.846458,0.821161,0.788614,0.723841,0.716269,0.605415,0.600742,0.532908,0.41287,0.377101,0.310717,0.214526,0.198897,0.085787,0.019888,-0.043595,-0.131891,-0.189735,-0.237911,-0.32943,-0.3681,-0.4398,-0.495388,-0.556615,-0.632826,-0.644911,-0.699371,-0.758342,-0.776227,-0.804262,-0.819086,-0.851794,-0.860495,-0.874512,-0.870806,-0.888047,-0.894814,-0.900776,-0.904965,-0.919949,-0.915277,-0.90996,-0.914632,-0.906093,-0.912538,-0.911087,-0.91141,-0.887563,-0.900453,-0.895942,-0.875318,-0.897714,-0.870645,-0.858722,-0.87564,-0.857755,-0.84116,-0.857917,-0.839065,-0.81248,-0.834876,-0.810707,-0.824725,-0.814896,-0.806035,-0.829881,-0.786539,-0.811996,-0.792984,-0.811352,-0.805712,-0.811191,-0.788311,-0.816185,-0.824564,-0.795239,-0.83117,-0.809096,-0.820214,-0.824242,-0.819408,-0.824725,-0.831814,-0.836004,-0.840193,-0.846799,-0.833748,-0.840515,-0.840676,-0.855177,-0.852277,-0.840193,-0.860495,-0.863073,-0.851794,-0.866778,-0.866778,-0.867101,-0.865812,-0.886113,-0.876929,-0.888852,-0.886919,-0.876285,-0.871934,-0.894814,-0.878057,-0.882891,-0.898842,-0.901259,-0.894169,-0.915438,-0.896747,-0.903837,-0.895942,-0.898842,-0.913021,-0.91286,-0.904159,-0.923333,-0.911893,-0.910765,-0.927844,-0.914149,-0.932839,-0.927683,-0.918983,-0.934128,-0.933645,-0.918177,-0.94154,-0.937673,-0.933806,-0.954752,-0.934612,-0.927683,-0.935739,-0.922366,-0.923816,-0.933161,-0.907865,-0.916727,-0.941862,-0.908348,-0.916405,-0.919788,-0.922366,-0.921399,-0.925428,-0.92011,-0.901259,-0.923011,-0.91721,-0.925589,-0.923816,-0.907543,-0.938156,-0.92285,-0.937028,-0.917694,-0.935256,-0.924139,-0.938156,-0.930745,-0.9272,-0.937673,-0.93864,-0.944279,-0.939284,-0.920272,-0.941218,-0.947501,-0.942023,-0.946212,-0.946212,-0.954108,-0.959425,-0.963936,-0.959264,-0.974731,-0.95878,-0.98311,-0.97022,-0.985849,-0.989394,-0.987138,-0.990683,-0.99036,-0.978276,-0.994227,-1.002445,-0.984399,-1.003573,-0.999706,-1.000189,-1.001478,-0.990522,-1.0047,-1.000672,-0.998739,-1.001156,-0.994872,-0.991488,-0.981821,-0.985849,-0.991811,-0.981338,-0.964581,-0.988427,-0.949435,-0.981499,-0.968125,-0.956847,-0.972959,-0.957491,-0.947824,-0.938317,-0.944279,-0.947824,-0.935095,-0.922044,-0.944601,-0.903192,-0.89997,-0.919627,-0.896909,-0.899164,-0.911732,-0.901742,-0.888047,-0.905609,-0.888208,-0.894814,-0.888208,-0.859206,-0.905448,-0.855822,-0.888208,-0.869195,-0.848249,-0.873546,-0.88708,-0.850505,-0.867262,-0.847121,-0.839065,-0.878863,-0.863878,-0.846799,-0.858883,-0.816669,-0.840354,-0.836004,-0.827303,-0.818763,-0.830848,-0.821986,-0.800556,-0.827625,-0.805068,-0.802007,-0.782027,-0.794111,-0.769782,-0.782994,-0.777193,-0.778482,-0.777032,-0.780577,-0.784444,-0.769943,-0.75947,-0.743035,-0.735946,-0.736268,-0.751091,-0.750286,-0.709199,-0.745291,-0.722734,-0.702271,-0.735623,-0.68213,-0.701626,-0.703882,-0.680358,-0.73949,-0.715,-0.665212,-0.697598,-0.695826,-0.648616,-0.719511,-0.631215,-0.659573,-0.674396,-0.63476,-0.652483,-0.671013,-0.617358,-0.646522,-0.646039,-0.61478,-0.652967,-0.606563,-0.611558,-0.633632,-0.566765,-0.595284,-0.606563,-0.591579,-0.563382,-0.590773,-0.553231,-0.589645,-0.584006,-0.527129,-0.555809,-0.545014,-0.529385,-0.558226,-0.542919,-0.546142,-0.55452,-0.548881,-0.541147,-0.565638,-0.565315,-0.547914,-0.559354,-0.569827,-0.568054,-0.555487,-0.550975,-0.559354,-0.543886,-0.549525,-0.528901,-0.575466,-0.532768,-0.551781,-0.533413,-0.521812,-0.522134,-0.55452,-0.51295,-0.545497,-0.532768,-0.509889,-0.552909,-0.517784,-0.499093,-0.561932,-0.483948,-0.538408,-0.503283,-0.504249,-0.521651,-0.541952,-0.491198,-0.540663,-0.515045,-0.518106,-0.546786,-0.502316,-0.525518,-0.5115,-0.526162,-0.529062,-0.518751,-0.504088,-0.530835,-0.562415,-0.515528,-0.567571,-0.510855,-0.520845,-0.551136,-0.55017,-0.556615,-0.570471,-0.562415,-0.562254,-0.581911,-0.559032,-0.56596,-0.594801,-0.561287,-0.566121,-0.599151,-0.549364,-0.602374,-0.589806,-0.588195,-0.589162,-0.591901,-0.579172,-0.595446,-0.542436,-0.574499,-0.56886,-0.559515,-0.576594,-0.560321,-0.541469,-0.549042,-0.572888,-0.507633,-0.566765,-0.538247,-0.54018,-0.56161,-0.549042,-0.550653,-0.53583,-0.539536,-0.547753,-0.536313,-0.511017,-0.532768,-0.53728,-0.530996,-0.534057,-0.539697,-0.504088,-0.54453,-0.560965,-0.510533,-0.534218,-0.534702,-0.505861,-0.553231,-0.518589,-0.523262,-0.52004,-0.51005,-0.530996,-0.530351,-0.505699,-0.530513,-0.50151,-0.500705,-0.540019,-0.539052,-0.521651,-0.513272,-0.516656,-0.497482,-0.502799,-0.518428,-0.479114,-0.514078,-0.524873,-0.492487,-0.518589,-0.507633,-0.500866,-0.513433,-0.509889,-0.5144,-0.530029,-0.514078,-0.515528,-0.523262,-0.499255,-0.539858,-0.513756,-0.516334,-0.526162,-0.503766,-0.509889,-0.526807,-0.536635,-0.507472,-0.521651,-0.510211,-0.520362,-0.547269,-0.503605,-0.555326,-0.553553,-0.550492
 14:56:03.30846,-0.522779,-0.536313,-0.514239,-0.54453,-0.549203,-0.49426,-0.573694,-0.521167,-0.541308,-0.539052,-0.516173,-0.558548,-0.551298,-0.531157,-0.572083,-0.552103,-0.552425,-0.554842,-0.549042,-0.546142,-0.549203,-0.536958,-0.567732,-0.575788,-0.547753,-0.587712,-0.548881,-0.537763,-0.547431,-0.601407,-0.509405,-0.576272,-0.55742,-0.560321,-0.576272,-0.560965,-0.5832,-0.574661,-0.59464,-0.536796,-0.567732,-0.565315,-0.572405,-0.541469,-0.556937,-0.54872,-0.563221,-0.556615,-0.547753,-0.542597,-0.530351,-0.524873,-0.548558,-0.530029,-0.508116,-0.529707,-0.534702,-0.514239,-0.530513,-0.496354,-0.501994,-0.555809,-0.491682,-0.54163,-0.523745,-0.498771,-0.528901,-0.533091,-0.507311,-0.520362,-0.544691,-0.520523,-0.543886,-0.518428,-0.5115,-0.503283,-0.505377,-0.507955,-0.513433,-0.508439,-0.515689,-0.534702,-0.528096,-0.530351,-0.527612,-0.533252,-0.508116,-0.496515,-0.524068,-0.53019,-0.511822,-0.535991,-0.519395,-0.496838,-0.529707,-0.560804,-0.478953,-0.511178,-0.517784,-0.527451,-0.52584,-0.545336,-0.503927,-0.545819,-0.532929,-0.511339,-0.562415,-0.507472,-0.529707,-0.542114,-0.534057,-0.54598,-0.536796,-0.52584,-0.546142,-0.540986,-0.518106,-0.5173,-0.565477,-0.52584,-0.54018,-0.545497,-0.518589,-0.533252,-0.536635,-0.54018,-0.534057,-0.531802,-0.496677,-0.550009,-0.516334,-0.523584,-0.525679,-0.497321,-0.523101,-0.506666,-0.501671,-0.506827,-0.513595,-0.51295,-0.510855,-0.517139,-0.492487,-0.5173,-0.532929,-0.519073,-0.503605,-0.508761,-0.498288,-0.531479,-0.519073,-0.482014,-0.539536,-0.49007,-0.504733,-0.516334,-0.491843,-0.530996,-0.527451,-0.5086,-0.492004,-0.50006,-0.499416,-0.511983,-0.525357,-0.502316,-0.529224,-0.516173,-0.514884,-0.493937,-0.498449,-0.506666,-0.496354,-0.510694,-0.505861,-0.530351,-0.482175,-0.502638,-0.495549,-0.497643,-0.473958,-0.514884,-0.485237,-0.487815,-0.501349,-0.489265,-0.522134,-0.479275,-0.471702,-0.487331,-0.443828,-0.465902,-0.500382,-0.467674,-0.453656,-0.454784,-0.46848,-0.483142,-0.463163,-0.431421,-0.481853,-0.450112,-0.470091,-0.467352,-0.456073,-0.459618,-0.45849,-0.443506,-0.480564,-0.46284,-0.422398,-0.448178,-0.44415,-0.436738,-0.473475,-0.489909,-0.446889,-0.478308,-0.455429,-0.449145,-0.495388,-0.4485,-0.482014,-0.479759,-0.450112,-0.48572,-0.46703,-0.483303,-0.466385,-0.505055,-0.452367,-0.471219,-0.493454,-0.45849,-0.531157,-0.48572,-0.487009,-0.501994,-0.491843,-0.475408,-0.482336,-0.45559,-0.471058,-0.473152,-0.477825,-0.47573,-0.460585,-0.449628,-0.456234,-0.464774,-0.447373,-0.455107,-0.458007,-0.430455,-0.48137,-0.456396,-0.434644,-0.438994,-0.47428,-0.444472,-0.449628,-0.439155,-0.433516,-0.429004,-0.428843,-0.432227,-0.461229,-0.395974,-0.435772,-0.42546,-0.430938,-0.431905,-0.414503,-0.436416,-0.407253,-0.435772,-0.408058,-0.412248,-0.384534,-0.435127,-0.414181,-0.403386,-0.374706,-0.411764,-0.393396,-0.414503,-0.423526,-0.395329,-0.417242,-0.402902,-0.373094,-0.405319,-0.370033,-0.365683,-0.385984,-0.371322,-0.366972,-0.396618,-0.324596,-0.370355,-0.389207,-0.318151,-0.351665,-0.334102,-0.322824,-0.329913,-0.336197,-0.321212,-0.294466,-0.308645,-0.28077,-0.297205,-0.288988,-0.275937,-0.298977,-0.298172,-0.268686,-0.286087,-0.259824,-0.288021,-0.251285,-0.209714,-0.287376,-0.238233,-0.236622,-0.257085,-0.266591,-0.193924,-0.210198,-0.232111,-0.198114,-0.220188,-0.205686,-0.217771,-0.220671,-0.21342,-0.221154,-0.217771,-0.180873,-0.189413,-0.207298,-0.175395,-0.194408,-0.182484,-0.19473,-0.20053,-0.176362,-0.20053,-0.200369,-0.160733,-0.174589,-0.195052,-0.177973,-0.21052,-0.176845,-0.146554,-0.213904,-0.167661,-0.215193,-0.185062,-0.182162,-0.182646,-0.162505,-0.159927,-0.181034,-0.169111,-0.165728,-0.170239,-0.149293,-0.164922,-0.156221,-0.164439,-0.150743,-0.14172,-0.12593,-0.120774,-0.160088,-0.161699,-0.12883,-0.155577,-0.116746,-0.142687,-0.137853,-0.124158,-0.137853,-0.13318,-0.106917,-0.129958,-0.150743,-0.105306,-0.162344,-0.11594,-0.147359,-0.168144,-0.128186,-0.173945,-0.15606,-0.186029,-0.212292,-0.206492,-0.181034,-0.217932,-0.227116,-0.232433,-0.230822,-0.23775,-0.256763,-0.247901,-0.250962,-0.248384,-0.260791,-0.280448,-0.270136,-0.286893,-0.286732,-0.316701,-0.314606,-0.288343,-0.287215,-0.304455,-0.287215,-0.321212,-0.309611,-0.304939,-0.353276,-0.325885,-0.292049,-0.355371,-0.328463,-0.341192,-0.362299,-0.342159,-0.381151,-0.362299,-0.347798,-0.425299,-0.3681,-0.379056,-0.425943,-0.408381,-0.422076,-0.4369,-0.408381,-0.423687,-0.455429,-0.462196,-0.446728,-0.472669,-0.464613,-0.49281,-0.447534,-0.483303,-0.484431,-0.531157,-0.489265,-0.505216,-0.476375,-0.508439,-0.531157,-0.473475,-0.523584,-0.500705,-0.520201,-0.496677,-0.559676,-0.542919,-0.525679,-0.539536,-0.529385,-0.538247,-0.563221,-0.526001,-0.55742,-0.565477,-0.592868,-0.559998,-0.581911,-0.560643,-0.589323,-0.584489,-0.597701,-0.625254,-0.595929,-0.597057,-0.613008,-0.615747,-0.627993,-0.632826,-0.606241,-0.675524,-0.643461,-0.666179,-0.702593,-0.684064,-0.657156,-0.691314,-0.668757,-0.709682,-0.704527,-0.712905,-0.726439,-0.721928,-0.693248,-0.729823,-0.732401,-0.721283,-0.729501,-0.718222,-0.761403,-0.741263,-0.741263,-0.775421,-0.751252,-0.728373,-0.787183,-0.774454,-0.766882,-0.802168,-0.780255,-0.786378,-0.793145,-0.805068,-0.803457,-0.812802,-0.811191,-0.815058,-0.826497,-0.807968,-0.838743,-0.839226,-0.848249,-0.857272,-0.85695,-0.859367,-0.858561,-0.879185,-0.874996,-0.879829,-0.867906,-0.86275,-0.870645,-0.875962,-0.866617,-0.864039,-0.85405,-0.849055,-0.861622,-0.83407,-0.829559,-0.841804,-0.806357,-0.824564,-0.819891,-0.813446,-0.793467,-0.808129,-0.78106,-0.792339,-0.751252,-0.743519,-0.75657,-0.714677,-0.727406,-0.69067,-0.703882,-0.689059,-0.676008,-0.617358,-0.613008,-0.581106,-0.532929,-0.527451,-0.472669,-0.440283,-0.421593,-0.345059,-0.362299,-0.314445,-0.282543,-0.217287,-0.204397,-0.151871,-0.120291,-0.099828,-0.011209,-0.009598,0.049535,0.084982,0.100289,0.173117,0.202764,0.229672,0.259802,0.302661,0.274303,0.349387,0.35406,0.362761,0.349226,0.337464,0.319096,0.32683,0.304756,0.293799,0.260124,0.186168,0.18794,0.151526,0.065164,0.060974,-0.040051,-0.068731,-0.162022,-0.203753,-0.264658,-0.350215,-0.420626,-0.47992,-0.534541,-0.657639,-0.658767,-0.770587,-0.81683,-0.865167,-0.904159,-0.944762,-0.96442,-1.006312,-1.024841,-1.038698,-1.053199,-1.072211,-1.074789,-1.065766,-1.105403,-1.091224,-1.114748,-1.108787,-1.10492,-1.133761,-1.14085,-1.152451,-1.152129,-1.145684,-1.15084,-1.149068,-1.15084,-1.152612,-1.153096,-1.149229,-1.171625,-1.174686,-1.17098,-1.18097,-1.163085,-1.170497,-1.148584,-1.161474,-1.165986,-1.158091,-1.15938,-1.153257,-1.152129,-1.155674,-1.151323,-1.152773,-1.144556,-1.131988,-1.139561,-1.133116,-1.132311,-1.138756,-1.121032,-1.140206,-1.126188,-1.121999,-1.147134,-1.119582,-1.113459,-1.127799,-1.123288,-1.126349,-1.141172,-1.107175,-1.122482,-1.144556,-1.124093,-1.144556,-1.120549,-1.134083,-1.132472,-1.126994,-1.140528,-1.13215,-1.124899,-1.141011,-1.140528,-1.139561,-1.148262,-1.148745,-1.147617,-1.167113,-1.159057,-1.144556,-1.162602,-1.164374,-1.157929,-1.17952,-1.162924,-1.162441,-1.174364,-1.160024,-1.181292,-1.177909,-1.181131,-1.18097,-1.179681,-1.178553,-1.185482,-1.187737,-1.173881,-1.196599,-1.194666,-1.189026,-1.203527,-1.192571,-1.180165,-1.198533,-1.180003,-1.200788,-1.194182,-1.193538,-1.188221,-1.192893,-1.184515,-1.187254,-1.189349,-1.167919,-1.177103,-1.188865,-1.16808,-1.175653,-1.166952,-1.14085,-1.146812,-1.128121,-1.133277,-1.10782,-1.085101,-1.07769,-1.086713,-1.039664,-1.038214,-1.051588,-0.989877,-0.997772,-0.965708,-0.944762,-0.941701,-0.904965,-0.890625,-0.923494,-0.870162,-0.844382,-0.894169,-0.828592,-0.838904,-0.818602,-0.77381,-0.823436,-0.792661,-0.768493,-0.775743,-0.747869,-0.748674,-0.779449,-0.701949,-0.742391,-0.735946,-0.707266,-0.737396,-0.710327,-0.705654,-0.717739,-0.67778,-0.693409,-0.688736,-0.645877,-0.638143,-0.691475,-0.617358,-0.646039,-0.649744,-0.615425,-0.60318,-0.657156,-0.606724,-0.604469,-0.646844,-0.582395,-0.629443,-0.621387,-0.593834,-0.612847,-0.594157,-0.577722,-0.622192,-0.557904,-0.629604,-0.606724,-0.561287,-0.576755,-0.565477,-0.565315,-0.605758,-0.5774,-0.571921,-0.560643,-0.604146,-0.573694,-0.552103,-0.566604,-0.556454,-0.574822,-0.560643,-0.593512,-0.551459,-0.553714,-0.5832,-0.579494,-0.566927,-0.56306,-0.593029,-0.53873,-0.570632,-0.578528,-0.570955,-0.572727,-0.587873,-0.542919,-0.588839,-0.521006,-0.52729,-0.560804,-0.509889,-0.52729,-0.540986,-0.520684,-0.542275,-0.506505,-0.496515,-0.506988,-0.487492,-0.487654,-0.475086,-0.474925,-0.46993,-0.482981,-0.455751,-0.463485,-0.465257,-0.472508,-0.423526,-0.423687,-0.461713,-0.451401,-0.433194,-0.409831,-0.417565,-0.408864,-0.390657,-0.405158,-0.426749,-0.386145,-0.421754,-0.397424,-0.410797,-0.396618,-0.42546,-0.388401,-0.390335,-0.401291,-0.412409,-0.387273,-0.400485,-0.402902,-0.394524,-0.384534,-0.383406,-0.407736,-0.379056,-0.403063,-0.365683,-0.42836,-0.387757,-0.361493,-0.392107,-0.365199,-0.367938,-0.361655,-0.402419,-0.359399,-0.383245,-0.373094,-0.343448,-0.346348,-0.373094,-0.341192,-0.339903,-0.350698,-0.327013,-0.369227,-0.368744,-0.324596,-0.359399,-0.329913,-0.353921,-0.346509,-0.352632,-0.330074,-0.328946,-0.32798,-0.334747,-0.356821,-0.315251,-0.33088,-0.365683,-0.348765,-0.339903,-0.32943,-0.340064,-0.370033,-0.351826,-0.338775,-0.371966,-0.373094,-0.336519,-0.376961,-0.337325,-0.396941,-0.37825,-0.375028,-0.357304,-0.388401,-0.346509,-0.387918,-0.425943,-0.363749,-0.38969,-0.372289,-0.38389,-0.375672,-0.39404,-0.397102,-0.392913,-0.365522,-0.427554,-0.409992,-0.391946,-0.441733,-0.423365,-0.406286,-0.424815,-0.423365,-0.437061,-0.453656,-0.45124,-0.426104,-0.46558,-0.459779,-0.449789,-0.456718,-0.444956,-0.476053,-0.455751,-0.490554,-0.472991,-0.493132,-0.441089,-0.487009,-0.506183,-0.451078,-0.482498,-0.469769,-0.470091,-0.495549,-0.470574,-0.469447,-0.482175,-0.483464,-0.487976,-0.526484,-0.494743,-0.504894,-0.517623,-0.501671,-0.51295,-0.497482,-0.528901,-0.520845,-0.514239,-0.535024,-0.516656,-0.542436,-0.513272,-0.522618,-0.504572,-0.54598,-0.512144,-0.542114,-0.543564,-0.539374,-0.527129,-0.536796,-0.556292,-0.515367,-0.553392,-0.558226,-0.540986,-0.556292,-0.566121,-0.553231,-0.555003,-0.560643,-0.54018,-0.562254,-0.573855,-0.553231,-0.58755,-0.571599,-0.571921,-0.569827,-0.573049,-0.589806,-0.583361,-0.578528,-0.583522,-0.601246,-0.588517,-0.616875,-0.586745,-0.602535,-0.600763,-0.580461,-0.599151,-0.613653,-0.585617,-0.615908,-0.659573,-0.606241,-0.615425,-0.605435,-0.582556,-0.61478,-0.595768,-0.61043,-0.611397,-0.602857,-0.599796,-0.602535,-0.628476,-0.609141,-0.601246,-0.625092,-0.618647,-0.583522,-0.656512,-0.614619,-0.638143,-0.621225,-0.580944,-0.63621,-0.642333,-0.603985,-0.612525,-0.61188,-0.617842,-0.634438,-0.632504,-0.630248,-0.606402,-0.600763,-0.613653,-0.617358,-0.600763,-0.631376,-0.603985,-0.61333,-0.601246,-0.656995,-0.605919,-0.638305,-0.646522,-0.59899,-0.645072,-0.607691,-0.612364,-0.612847,-0.604469,-0.612202,-0.627187,-0.601085,-0.652161,-0.62622,-0.594318,-0.633954,-0.601246,-0.611719,-0.61043,-0.625254,-0.601407,-0.615908,-0.622031,-0.601085,-0.625415,-0.611558,-0.601729,-0.626381,-0.608174,-0.626865,-0.644427,-0.604307,-0.609624,-0.619453,-0.596573,-0.645877,-0.593995,-0.610269,-0.625092,-0.610913,-0.613491,-0.623965,-0.587873,-0.613814,-0.633954,-0.60608,-0.622353,-0.605758,-0.604952,-0.653128,-0.619292,-0.614942,-0.640238,-0.606402,-0.611558,-0.628476,-0.605113,-0.628959,-0.624609,-0.604469,-0.625898,-0.588678,-0.620259,-0.644105,-0.622676,-0.633954,-0.592384,-0.622998,-0.611719,-0.650872,-0.631215,-0.599313,-0.657801,-0.609786,-0.630571,-0.653289,-0.602213,-0.644427,-0.649744,-0.640721,-0.669563,-0.642172,-0.63186,-0.658123,-0.612686,-0.653128,-0.663279,-0.626059,-0.635565,-0.662634,-0.632182,-0.647811,-0.659895,-0.653611,-0.667146,-0.629282,-0.642494,-0.648294,-0.627187,-0.63911,-0.613653,-0.645877,-0.648778,-0.649583,-0.617842,-0.612041,-0.640883,-0.610269,-0.630087,-0.613653,-0.652967,-0.600118,-0.630893,-0.627348,-0.637499,-0.642494,-0.579333,-0.664568,-0.645233,-0.584489,-0.658606,-0.617197,-0.647005,-0.647811,-0.633954,-0.620098,-0.650389,-0.631215,-0.658445,-0.656189,-0.617681,-0.666662,-0.642172,-0.654095,-0.65909,-0.641688,-0.652967,-0.662634,-0.628959,-0.65635,-0.670368,-0.611075,-0.658445,-0.632826,-0.662473,-0.66779,-0.656028,-0.635565,-0.648939,-0.640883,-0.642977,-0.672946,-0.615908,-0.63186,-0.647811,-0.62477,-0.664729,-0.669885,-0.642816,-0.629926,-0.664246,-0.648778,-0.663923,-0.684225,-0.638949,-0.674396,-0.64056,-0.672302,-0.665051,-0.652645,-0.657317,-0.659573,-0.650389,-0.643622,-0.645394,-0.625898,-0.673752,-0.666501,-0.655706,-0.633793,-0.649422,-0.640721,-0.645233,-0.628476,-0.624287,-0.662312,-0.631376,-0.640077,-0.650872,-0.615747,-0.62912,-0.616875,-0.604307,-0.62767,-0.639755,-0.604307,-0.659895,-0.621709,-0.616069,-0.641527,-0.636049,-0.667146,-0.643622,-0.650228,-0.63621,-0.618003,-0.635565,-0.599151,-0.642816,-0.605113,-0.628315,-0.612847,-0.63766,-0.632987,-0.63766,-0.613653,-0.614458,-0.647489,-0.599957,-0.633471,-0.608174,-0.580783,-0.603341,-0.613653,-0.5832,-0.621548,-0.619292,-0.594962,-0.617197,-0.583684,-0.619453,-0.619775,-0.556937,-0.613008,-0.597379,-0.61188,-0.609786,-0.596251,-0.576755,-0.631054,-0.595123,-0.578366,-0.60608,-0.56741,-0.600118,-0.60898,-0.586745,-0.580461,-0.602052,-0.575305,-0.61333,-0.578044,-0.534218,-0.589323,-0.550009,-0.568538,-0.563865,-0.530674,-0.550009,-0.557098,-0.549364,-0.541952,-0.543886,-0.570794,-0.561126,-0.529224,-0.529868,-0.524068,-0.537441,-0.537119,-0.540825,-0.512628,-0.510533,-0.535346,-0.530996,-0.519395,-0.550009,-0.510533,-0.518106,-0.509566,-0.528257,-0.497966,-0.517139,-0.51295,-0.500866,-0.497966,-0.509728,-0.525518,-0.477825,-0.486687,-0.497643,-0.504249,-0.486526,-0.489265,-0.485398,-0.481047,-0.496515,-0.456557,-0.492971,-0.512306,-0.434644,-0.473314,-0.484109,-0.442539,-0.489748,-0.45124,-0.451562,-0.454945,-0.440444,-0.428682,-0.432871,-0.424654,-0.429649,-0.429649,-0.410636,-0.411281,-0.420465,-0.40967,-0.392107,-0.394846,-0.385501,-0.39404,-0.424493,-0.378573,-0.419659,-0.365199,-0.418531,-0.398391,-0.387273,-0.409347,-0.415953,-0.376961,-0.385662,-0.423204,-0.34667,-0.385179,-0.39823,-0.406125,-0.412409,-0.393235,-0.400324,-0.390496,-0.384051,-0.384212,-0.372128,-0.358271,-0.353276,-0.364071,-0.344898,-0.349892,-0.356499,-0.346026,-0.350054,-0.348442,-0.314123,-0.306067,-0.326368,-0.285121,-0.319762,-0.272231,-0.264013,-0.287376,-0.260307,-0.259985,-0.285443,-0.202786,-0.250479,-0.272714,-0.189896,-0.26788,-0.208425,-0.228727,-0.217771,-0.200853,-0.215837,-0.231144,-0.222282,-0.227922,-0.24065,-0.219543,-0.244678,-0.218576,-0.221477,-0.238878,-0.237267,-0.214226,-0.240489,-0.230016,-0.235978,-0.249673,-0.238717,-0.241134,-0.255313,-0.265786,-0.22921,-0.228244,-0.255313,-0.245806,-0.253057,-0.237911,-0.238072,-0.246129,-0.230499,-0.232755,-0.21761,-0.206814,-0.210842,-0.220671,-0.196825,-0.21906,-0.215354,-0.201336,-0.215676,-0.174589,-0.20327,-0.209876,-0.161861,-0.186351,-0.193924,-0.178456,-0.175073,-0.167661,-0.139787,-0.192313,-0.194569,-0.161699,-0.184257,-0.172334,-0.183612,-0.180068,-0.17185,-0.181679,-0.174589,-0.167178,-0.205525,-0.218093,-0.158155,-0.221154,-0.157832,-0.187157,-0.189252,-0.184901,-0.157994,-0.197147,-0.184901,-0.185224,-0.18184,-0.158316,-0.186674,-0.143654,-0.168306,-0.158316,-0.147037,-0.153643,-0.173784,-0.159283,-0.132375,-0.185385,-0.157832,-0.146554,-0.179906,-0.135114,-0.157994,-0.18764,-0.169433,-0.150582,-0.177329,-0.155416,-0.201014,-0.202786,-0.161538,-0.199725,-0.203914,-0.211003,-0.217126,-0.20327,-0.209231,-0.240328,-0.201336,-0.220026,-0.26788,-0.188285,-0.281576,-0.260952,-0.245645,-0.281415,-0.271908,-0.263852,-0.301716,-0.281254,-0.294466,-0.3109,-0.285765,-0.315895,-0.323468,-0.302361,-0.344898,-0.333619,-0.316056,-0.329591,-0.332813,-0.347315,-0.359077,-0.366166,-0.336036,-0.376156,-0.377767,-0.37245,-0.373578,-0.382278,-0.38679,-0.405641,-0.432227,-0.412086,-0.447373,-0.413859,-0.467352,-0.430455,-0.466869,-0.477019,-0.492326,-0.498771,-0.477825,-0.51295,-0.500221,-0.513433,-0.520201,-0.496354,-0.537119,-0.519717,-0.531802,-0.514884,-0.499899,-0.483464,-0.503283,-0.48572,-0.480081,-0.512144,-0.45414,-0.454301,-0.488781,-0.452045,-0.461551,-0.477664,-0.420465,-0.478631,-0.428843,-0.430293,-0.441572,-0.358754,-0.416437,-0.382601,-0.34957,-0.3797,-0.384695,-0.287376,-0.338614,-0.296883,-0.275131,-0.300589,-0.232916,-0.198114,-0.198114,-0.150743,-0.145265,-0.123513,-0.048912,-0.078076,-0.015721,0.012798,0.036806,0.053401,0.125424,0.141859,0.164094,0.215976,0.250134,0.268986,0.288804,0.301211,0.356638,0.383707,0.367433,0.400625,0.375006,0.370333,0.363566,0.34117,0.311845,0.338431,0.261413,0.227738,0.182784,0.090782,0.072414,0.013282,-0.050685,-0.081782,-0.203753,-0.26353,-0.31654,-0.372933,-0.45994,-0.533413,-0.605274,-0.674557,-0.693087,-0.787344,-0.848088,-0.912054,-0.949757,-0.985043,-1.012596,-1.049654,-1.055132,-1.056905,-1.075595,-1.071889,-1.100408,-1.093963,-1.107336,-1.119904,-1.114748,-1.112331,-1.132472,-1.141011,-1.141172,-1.141978,-1.131344,-1.142784,-1.146651,-1.134083,-1.153096,-1.150518,-1.153418,-1.150195,-1.141495,-1.135372,-1.126349,-1.139884,-1.113137,-1.127799,-1.100569,-1.109592,-1.108948,-1.090257,-1.082362,-1.078495,-1.078979,-1.040309,-1.078656,-1.016946,-1.033219,-1.021135,-1.030158,-0.988749,-1.015818,-0.991811,-0.973604,-0.98746,-0.96877,-0.980371,-0.943635,-0.952335,-0.96442,-0.947985,-0.959425,-0.962325,-0.929294,-0.932195,-0.937673,-0.90722,-0.921077,-0.96168,-0.898036,-0.937995,-0.915438,-0.910604,-0.926072,-0.900131,-0.911893,-0.928489,-0.860817,-0.894814,-0.935256,-0.847443,-0.886919,-0.873062,-0.862428,-0.876446,-0.871129,-0.870968,-0.886758,-0.862267,-0.879346,-0.87274,-0.834715,-0.863073,-0.836004,-0.83971,-0.848732,-0.816508,-0.847927,-0.820536,-0.825047,-0.822469,-0.811029,-0.843254,-0.797817,-0.802007,-0.83697,-0.82118,-0.799267,-0.817313,-0.804907,-0.788794,-0.808451,-0.77671,-0.784766,-0.758181,-0.776549,-0.783477,-0.799751,-0.759953,-0.788794,-0.747063,-0.794434,-0.770426,-0.7838,-0.784927,-0.759953,-0.76672,-0.764948,-0.739329,-0.746097,-0.754636,-0.738846,-0.713872,-0.732079,-0.718222,-0.729501,-0.72934,-0.697115,-0.707588,-0.716772,-0.693248,-0.67069,-0.69212,-0.670368,-0.710166,-0.663923,-0.634115,-0.707266,-0.651517,-0.632826,-0.651678,-0.661345,-0.641688,-0.64475,-0.615747,-0.67343,-0.603502,-0.601891,-0.65909,-0.605596,-0.616875,-0.631215,-0.58465,-0.596896,-0.603502,-0.61188,-0.603985,-0.59464,-0.600763,-0.611236,-0.601085,-0.566604,-0.590451,-0.605596,-0.60318,-0.608658,-0.569827,-0.587389,-0.592223,-0.601729,-0.585456,-0.634276,-0.604952,-0.608174,-0.634115,-0.571599,-0.596896,-0.600924,-0.582072,-0.603824,-0.571277,-0.54598,-0.606563,-0.553392,-0.592706,-0.591579,-0.562254,-0.589162,-0.574177,-0.580461,-0.565799,-0.598185,-0.546303,-0.582556,-0.579978,-0.548397,-0.594157,-0.567893,-0.592223,-0.587067,-0.562576,-0.57595,-0.573049,-0.606563,-0.571277,-0.582878,-0.567893,-0.56741,-0.588517,-0.569988,-0.562737,-0.579172,-0.570794,-0.587873,-0.584489,-0.549686,-0.604791,-0.55162,-0.569505,-0.567088,-0.545014,-0.544369,-0.576433,-0.565477,-0.56161,-0.5832,-0.552103,-0.55452,-0.575627,-0.522618,-0.572405,-0.577239,-0.563543,-0.536474,-0.561771,-0.530835,-0.570632,-0.555165,-0.499093,-0.579494,-0.526001,-0.556131,-0.573049,-0.524712,-0.527935,-0.530351,-0.516495,-0.531479,-0.528096,-0.485076,-0.507633,-0.528901,-0.497482,-0.485398,-0.488459,-0.490715,-0.472186,-0.470252,-0.475247,-0.498288,-0.453818,-0.435772,-0.495065,-0.410475,-0.433033,-0.435288,-0.434322,-0.428038,-0.430293,-0.389529,-0.425621,-0.446245,-0.413053,-0.436416,-0.401936,-0.423848,-0.457523,-0.393235,-0.407897,-0.417242,-0.365199,-0.381634,-0.414664,-0.350376,-0.390496,-0.363266,-0.338614,-0.360849,-0.350054,-0.336197,-0.337808,-0.36391,-0.312834,-0.35811,-0.321696
 14:56:04.30852,-0.302844,-0.361171,-0.278514,-0.349892,-0.326207,-0.321535,-0.307678,-0.330235,-0.277548,-0.308806,-0.321212,-0.300911,-0.334586,-0.285282,-0.284798,-0.313156,-0.283509,-0.283026,-0.300589,-0.257246,-0.277709,-0.306872,-0.275775,-0.282543,-0.299944,-0.256602,-0.296722,-0.270942,-0.264819,-0.292855,-0.293982,-0.268041,-0.288343,-0.273036,-0.278031,-0.308161,-0.248545,-0.265625,-0.286248,-0.301877,-0.285282,-0.315573,-0.257407,-0.305583,-0.281415,-0.286087,-0.328624,-0.290438,-0.303328,-0.299783,-0.29366,-0.26353,-0.305906,-0.309773,-0.286248,-0.304939,-0.279481,-0.311545,-0.317829,-0.277709,-0.334102,-0.262563,-0.297527,-0.348603,-0.337003,-0.29511,-0.31364,-0.301233,-0.300911,-0.341836,-0.269975,-0.32524,-0.299138,-0.327818,-0.32379,-0.326691,-0.32089,-0.363588,-0.311706,-0.335875,-0.382923,-0.330396,-0.333458,-0.357788,-0.322663,-0.375028,-0.35666,-0.346187,-0.36246,-0.354887,-0.319279,-0.361171,-0.363749,-0.352309,-0.397585,-0.319601,-0.356176,-0.364394,-0.369227,-0.381473,-0.403547,-0.362944,-0.384051,-0.397424,-0.384373,-0.386629,-0.373578,-0.377606,-0.398552,-0.373255,-0.395652,-0.402902,-0.371966,-0.40548,-0.394202,-0.357626,-0.406769,-0.40258,-0.391946,-0.398713,-0.40258,-0.400002,-0.396457,-0.400324,-0.389207,-0.404191,-0.418692,-0.403225,-0.420304,-0.37825,-0.387434,-0.419981,-0.41547,-0.40113,-0.426104,-0.398874,-0.427554,-0.458329,-0.412409,-0.428038,-0.44415,-0.430616,-0.482659,-0.440928,-0.462035,-0.486365,-0.464129,-0.494421,-0.487492,-0.444311,-0.504572,-0.507472,-0.452851,-0.496677,-0.495388,-0.469769,-0.513595,-0.530996,-0.494421,-0.532446,-0.515689,-0.516173,-0.52729,-0.490554,-0.521329,-0.500221,-0.512628,-0.511983,-0.49861,-0.492326,-0.492971,-0.511017,-0.509405,-0.50296,-0.495226,-0.516817,-0.540825,-0.496838,-0.515206,-0.523101,-0.500544,-0.542114,-0.53873,-0.504088,-0.516978,-0.529062,-0.539374,-0.533735,-0.51295,-0.539374,-0.532285,-0.515367,-0.524712,-0.513595,-0.539697,-0.5086,-0.564671,-0.542114,-0.536152,-0.516334,-0.521329,-0.542436,-0.533896,-0.539536,-0.536796,-0.536152,-0.534218,-0.542436,-0.507311,-0.520845,-0.546303,-0.555809,-0.515045,-0.557098,-0.534702,-0.525679,-0.564671,-0.546303,-0.526323,-0.579172,-0.53019,-0.54598,-0.528901,-0.549525,-0.597379,-0.58465,-0.498127,-0.559515,-0.581911,-0.516334,-0.579978,-0.558226,-0.549364,-0.574177,-0.562576,-0.57176,-0.573372,-0.560804,-0.571599,-0.589967,-0.540663,-0.560321,-0.550331,-0.560965,-0.575627,-0.569505,-0.549686,-0.571116,-0.540825,-0.571116,-0.568054,-0.519878,-0.562576,-0.557904,-0.561448,-0.54163,-0.540825,-0.51295,-0.544047,-0.554037,-0.524068,-0.530674,-0.517623,-0.518267,-0.549686,-0.518106,-0.521329,-0.536958,-0.532124,-0.519717,-0.529062,-0.555648,-0.517139,-0.54163,-0.508922,-0.530996,-0.511178,-0.525679,-0.540019,-0.51295,-0.499416,-0.503283,-0.501349,-0.496354,-0.523584,-0.495226,-0.475247,-0.490876,-0.47573,-0.481853,-0.46703,-0.47992,-0.470574,-0.500866,-0.46558,-0.453334,-0.478631,-0.465096,-0.491037,-0.472025,-0.460101,-0.476536,-0.456396,-0.440122,-0.479114,-0.450273,-0.475086,-0.481531,-0.4456,-0.483787,-0.465096,-0.46993,-0.485559,-0.448823,-0.435933,-0.466063,-0.465418,-0.468963,-0.468158,-0.42546,-0.451562,-0.443344,-0.437061,-0.424976,-0.419498,-0.40113,-0.461713,-0.432227,-0.404514,-0.410636,-0.433033,-0.419176,-0.430938,-0.394524,-0.395491,-0.423526,-0.404836,-0.388562,-0.415953,-0.405158,-0.393074,-0.435772,-0.408058,-0.402258,-0.40403,-0.409025,-0.426265,-0.413537,-0.381956,-0.404675,-0.407092,-0.390174,-0.424815,-0.372772,-0.38244,-0.385179,-0.357465,-0.380506,-0.388401,-0.361171,-0.369872,-0.376478,-0.343125,-0.364233,-0.346187,-0.337808,-0.385018,-0.328141,-0.333297,-0.332169,-0.326368,-0.346348,-0.300911,-0.324274,-0.359882,-0.296883,-0.278031,-0.298494,-0.289471,-0.270781,-0.291404,-0.272714,-0.278676,-0.281254,-0.278031,-0.238395,-0.256763,-0.258535,-0.252251,-0.27787,-0.234689,-0.238395,-0.234205,-0.25209,-0.211326,-0.272231,-0.232916,-0.212454,-0.25644,-0.244034,-0.251929,-0.246934,-0.24629,-0.251768,-0.256924,-0.216643,-0.249996,-0.238072,-0.261113,-0.266108,-0.234044,-0.243067,-0.276742,-0.231627,-0.263047,-0.251768,-0.241617,-0.264336,-0.265786,-0.24629,-0.278192,-0.276098,-0.221638,-0.254346,-0.236783,-0.227116,-0.266914,-0.224538,-0.243873,-0.20053,-0.232594,-0.227922,-0.237106,-0.222121,-0.256602,-0.197469,-0.225666,-0.23775,-0.258374,-0.225021,-0.230822,-0.226471,-0.205847,-0.232755,-0.237911,-0.22631,-0.22051,-0.225827,-0.250801,-0.221799,-0.245323,-0.225344,-0.216159,-0.228727,-0.214548,-0.25064,-0.224377,-0.239039,-0.254185,-0.232272,-0.2363,-0.227599,-0.224699,-0.253701,-0.237106,-0.259663,-0.264336,-0.243551,-0.273036,-0.270297,-0.252412,-0.295916,-0.311867,-0.285765,-0.333136,-0.328463,-0.300589,-0.325563,-0.318796,-0.329913,-0.361332,-0.324274,-0.366811,-0.366327,-0.355371,-0.377445,-0.353276,-0.369066,-0.377122,-0.360366,-0.395329,-0.409992,-0.361332,-0.407575,-0.384856,-0.343609,-0.358432,-0.395168,-0.370355,-0.393557,-0.38969,-0.39404,-0.395007,-0.367938,-0.380828,-0.423204,-0.407575,-0.403708,-0.414503,-0.420465,-0.442539,-0.446889,-0.433355,-0.429488,-0.454945,-0.4369,-0.447373,-0.455268,-0.440122,-0.4427,-0.462357,-0.44415,-0.467996,-0.492326,-0.437544,-0.496999,-0.45994,-0.480725,-0.497482,-0.490232,-0.475247,-0.492648,-0.485881,-0.473797,-0.518912,-0.502799,-0.520845,-0.49571,-0.486042,-0.496193,-0.50715,-0.504572,-0.509889,-0.503766,-0.497804,-0.544691,-0.480564,-0.515528,-0.530674,-0.491843,-0.53438,-0.513111,-0.513595,-0.546303,-0.546947,-0.510855,-0.552748,-0.56596,-0.552748,-0.595284,-0.576433,-0.572727,-0.583522,-0.589806,-0.624931,-0.607208,-0.607691,-0.634115,-0.635727,-0.626381,-0.645716,-0.650389,-0.641205,-0.665212,-0.66054,-0.687931,-0.671818,-0.711133,-0.686803,-0.706138,-0.695504,-0.692442,-0.72515,-0.718383,-0.719028,-0.718544,-0.722089,-0.709038,-0.743841,-0.724828,-0.726601,-0.726439,-0.75383,-0.766559,-0.761726,-0.768976,-0.789922,-0.764465,-0.787828,-0.781383,-0.794434,-0.823436,-0.831009,-0.823436,-0.81538,-0.819086,-0.833748,-0.827947,-0.860656,-0.841965,-0.840032,-0.863073,-0.852277,-0.849538,-0.873223,-0.865167,-0.852277,-0.865812,-0.850505,-0.856466,-0.883052,-0.839548,-0.860011,-0.859528,-0.843738,-0.863878,-0.85405,-0.847121,-0.870645,-0.842288,-0.844866,-0.850344,-0.864845,-0.818119,-0.858239,-0.819247,-0.862428,-0.846799,-0.830042,-0.850505,-0.852116,-0.842126,-0.869034,-0.877251,-0.837776,-0.871129,-0.862589,-0.868228,-0.898681,-0.850021,-0.868712,-0.895297,-0.882407,-0.894169,-0.901742,-0.887241,-0.89997,-0.903354,-0.902387,-0.913343,-0.917371,-0.908509,-0.936706,-0.925105,-0.93445,-0.933806,-0.931067,-0.928811,-0.946696,-0.952496,-0.934128,-0.952496,-0.921399,-0.949274,-0.935256,-0.943635,-0.928005,-0.930422,-0.929294,-0.926555,-0.903837,-0.903354,-0.932839,-0.902065,-0.89997,-0.890141,-0.863234,-0.873062,-0.843577,-0.856305,-0.853405,-0.83407,-0.802329,-0.824242,-0.807324,-0.747063,-0.760759,-0.733368,-0.710005,-0.660862,-0.670368,-0.640399,-0.619453,-0.592868,-0.535346,-0.547108,-0.441572,-0.458168,-0.40967,-0.387434,-0.341836,-0.326368,-0.265625,-0.214226,-0.197791,-0.133986,-0.106112,-0.028772,0.004742,0.003453,0.059524,0.100772,0.133158,0.18359,0.191324,0.209048,0.293155,0.251423,0.20937,0.28107,0.236278,0.239017,0.214365,0.178917,0.185201,0.147982,0.078376,0.065647,0.017632,-0.05423,-0.1045,-0.168144,-0.220832,-0.301555,-0.353276,-0.427232,-0.470252,-0.57595,-0.620903,-0.690186,-0.75383,-0.838582,-0.871129,-0.941057,-0.955235,-1.00035,-1.041437,-1.051265,-1.057549,-1.097025,-1.079623,-1.10782,-1.105242,-1.111526,-1.13215,-1.117487,-1.116037,-1.13505,-1.142623,-1.148745,-1.149229,-1.154385,-1.167597,-1.16083,-1.143267,-1.171464,-1.160507,-1.159218,-1.152773,-1.154546,-1.15664,-1.15519,-1.153096,-1.138272,-1.150034,-1.135694,-1.11072,-1.133922,-1.100892,-1.106692,-1.076723,-1.086551,-1.072695,-1.051588,-1.057066,-1.04337,-1.042242,-1.027097,-1.03612,-1.013723,-1.010501,-1.000028,-1.002284,-0.990844,-0.983593,-0.985204,-0.974087,-1.005828,-0.948307,-0.961197,-0.976987,-0.963453,-0.962647,-0.963775,-0.955558,-0.964903,-0.95878,-0.937512,-0.950563,-0.946857,-0.899648,-0.927844,-0.921399,-0.907543,-0.929939,-0.912699,-0.899164,-0.931228,-0.878863,-0.908832,-0.916243,-0.873062,-0.899325,-0.88563,-0.877413,-0.909798,-0.885308,-0.892719,-0.900776,-0.874351,-0.892397,-0.903676,-0.874835,-0.867423,-0.904159,-0.867584,-0.889336,-0.880313,-0.870323,-0.87274,-0.890141,-0.879991,-0.888369,-0.883858,-0.876607,-0.910926,-0.84696,-0.893847,-0.899003,-0.889336,-0.881441,-0.903515,-0.870968,-0.88418,-0.921561,-0.886435,-0.931711,-0.894975,-0.908993,-0.889658,-0.890947,-0.895781,-0.912054,-0.889658,-0.909315,-0.915921,-0.877896,-0.904481,-0.885308,-0.897714,-0.89562,-0.893847,-0.903031,-0.898681,-0.89143,-0.880957,-0.90432,-0.899325,-0.890141,-0.895136,-0.893847,-0.901903,-0.906415,-0.892719,-0.893847,-0.882569,-0.904159,-0.884341,-0.910765,-0.904804,-0.889336,-0.90577,-0.896264,-0.878379,-0.886597,-0.898036,-0.866295,-0.890141,-0.876929,-0.88563,-0.88128,-0.808451,-0.870162,-0.819247,-0.816508,-0.815702,-0.802168,-0.790889,-0.794273,-0.782511,-0.746741,-0.779127,-0.720317,-0.728856,-0.740618,-0.728051,-0.708555,-0.728856,-0.679713,-0.701787,-0.681164,-0.671013,-0.684225,-0.67488,-0.658606,-0.671174,-0.663118,-0.647489,-0.633632,-0.661023,-0.651678,-0.628315,-0.629282,-0.608658,-0.617681,-0.626543,-0.632504,-0.626865,-0.618164,-0.618003,-0.631054,-0.611075,-0.591579,-0.603018,-0.589162,-0.59174,-0.584167,-0.551942,-0.592706,-0.566765,-0.547753,-0.542436,-0.536796,-0.526484,-0.53728,-0.498932,-0.530674,-0.516656,-0.503766,-0.521006,-0.48427,-0.471219,-0.520523,-0.487976,-0.446406,-0.489748,-0.443506,-0.45414,-0.496677,-0.432066,-0.442539,-0.435611,-0.450756,-0.431099,-0.437222,-0.436577,-0.403386,-0.432549,-0.419659,-0.434966,-0.386307,-0.388562,-0.442378,-0.432549,-0.398874,-0.413537,-0.42127,-0.405641,-0.425943,-0.407736,-0.41112,-0.431421,-0.384856,-0.412086,-0.406769,-0.397424,-0.403225,-0.415148,-0.420304,-0.393074,-0.403869,-0.389529,-0.424815,-0.380989,-0.420465,-0.405641,-0.41112,-0.398713,-0.40113,-0.430132,-0.41402,-0.407092,-0.430777,-0.427877,-0.405158,-0.431905,-0.420787,-0.392107,-0.423526,-0.419981,-0.404191,-0.410959,-0.399841,-0.392107,-0.406125,-0.391946,-0.414342,-0.404191,-0.390818,-0.38824,-0.390657,-0.397585,-0.371322,-0.427715,-0.403225,-0.408381,-0.432871,-0.385984,-0.420143,-0.416598,-0.40403,-0.393718,-0.409347,-0.374706,-0.40967,-0.440283,-0.415309,-0.414664,-0.411764,-0.398552,-0.435288,-0.415792,-0.395491,-0.411764,-0.424171,-0.399035,-0.426749,-0.395974,-0.393718,-0.437222,-0.371805,-0.42691,-0.399841,-0.409992,-0.380023,-0.411603,-0.394202,-0.414987,-0.406608,-0.397102,-0.417403,-0.396941,-0.398552,-0.399358,-0.428199,-0.382117,-0.418531,-0.401452,-0.384534,-0.410475,-0.408864,-0.412248,-0.420304,-0.412086,-0.413053,-0.417565,-0.431421,-0.393396,-0.430616,-0.40693,-0.430777,-0.406769,-0.40548,-0.433516,-0.393879,-0.460746,-0.409186,-0.407253,-0.42401,-0.400969,-0.417081,-0.424976,-0.409347,-0.41257,-0.443828,-0.394202,-0.40113,-0.415953,-0.426104,-0.402097,-0.427071,-0.384212,-0.423526,-0.444311,-0.400485,-0.424171,-0.403708,-0.398069,-0.40693,-0.429649,-0.407897,-0.409186,-0.403869,-0.408864,-0.443667,-0.38679,-0.420465,-0.414342,-0.408542,-0.424815,-0.437383,-0.426104,-0.448178,-0.434966,-0.418854,-0.434644,-0.442378,-0.440444,-0.451401,-0.429649,-0.465902,-0.453495,-0.440605,-0.46284,-0.452206,-0.45124,-0.460585,-0.463485,-0.478308,-0.438833,-0.473636,-0.463163,-0.457201,-0.467513,-0.476053,-0.461229,-0.477342,-0.453173,-0.478631,-0.448823,-0.447534,-0.497482,-0.470091,-0.464452,-0.481047,-0.464291,-0.473152,-0.469285,-0.467352,-0.489426,-0.49007,-0.473152,-0.49571,-0.479597,-0.456396,-0.523101,-0.497482,-0.494582,-0.494904,-0.509244,-0.485237,-0.489748,-0.497321,-0.515206,-0.511178,-0.486687,-0.520362,-0.529385,-0.475569,-0.513111,-0.534057,-0.502155,-0.522456,-0.503121,-0.529868,-0.530835,-0.534218,-0.52729,-0.508922,-0.535991,-0.543564,-0.528257,-0.49571,-0.531802,-0.509889,-0.507311,-0.552909,-0.497966,-0.511822,-0.514078,-0.538408,-0.534702,-0.519556,-0.521973,-0.50441,-0.540019,-0.533413,-0.528257,-0.537924,-0.504088,-0.505699,-0.538085,-0.512144,-0.532768,-0.515206,-0.505699,-0.530996,-0.524873,-0.523101,-0.547592,-0.531157,-0.535669,-0.527935,-0.515045,-0.536635,-0.542597,-0.523584,-0.539374,-0.541952,-0.537602,-0.563865,-0.531802,-0.500705,-0.542114,-0.525034,-0.538085,-0.544369,-0.5144,-0.527612,-0.528257,-0.510855,-0.530674,-0.537119,-0.523584,-0.537441,-0.514239,-0.543886,-0.540341,-0.52874,-0.521329,-0.524229,-0.508922,-0.518267,-0.54308,-0.518589,-0.553553,-0.53438,-0.536152,-0.539536,-0.524551,-0.535024,-0.542436,-0.53438,-0.552587,-0.555809,-0.529868,-0.545014,-0.54163,-0.526484,-0.541308,-0.534863,-0.54598,-0.491359,-0.529546,-0.540341,-0.49861,-0.534702,-0.519556,-0.5173,-0.530513,-0.507794,-0.516978,-0.523584,-0.527935,-0.506344,-0.522456,-0.489426,-0.555326,-0.497966,-0.505377,-0.504572,-0.497482,-0.508761,-0.534218,-0.48282,-0.518428,-0.495388,-0.484109,-0.535507,-0.512306,-0.498449,-0.503283,-0.493132,-0.500382,-0.483464,-0.462196,-0.461551,-0.508922,-0.491037,-0.496515,-0.503283,-0.470897,-0.506827,-0.470574,-0.488781,-0.486203,-0.506183,-0.472025,-0.47992,-0.486848,-0.464291,-0.508922,-0.489909,-0.489748,-0.50006,-0.47992,-0.499416,-0.506022,-0.502155,-0.518751,-0.493454,-0.486687,-0.508439,-0.496677,-0.49571,-0.50296,-0.486526,-0.489426,-0.510855,-0.487976,-0.510372,-0.50715,-0.499416,-0.492971,-0.543403,-0.483787,-0.524551,-0.521812,-0.498288,-0.523906,-0.545497,-0.486526,-0.529385,-0.509728,-0.519073,-0.532607,-0.531318,-0.520684,-0.520845,-0.530513,-0.514239,-0.539374,-0.543886,-0.506505,-0.515689,-0.516011,-0.532929,-0.53873,-0.486848,-0.527773,-0.534702,-0.486848,-0.522295,-0.521167,-0.509244,-0.523745,-0.513433,-0.498288,-0.495549,-0.489587,-0.516978,-0.524712,-0.50715,-0.49426,-0.54163,-0.492648,-0.524551,-0.514239,-0.469447,-0.545819,-0.508116,-0.509405,-0.519073,-0.483303,-0.515528,-0.522134,-0.513111,-0.531802,-0.526807,-0.511983,-0.541147,-0.515045,-0.523262,-0.540663,-0.498932,-0.537602,-0.515367,-0.510372,-0.512628,-0.541791,-0.506988,-0.520845,-0.52729,-0.501027,-0.535507,-0.511178,-0.496999,-0.50006,-0.510211,-0.520845,-0.487331,-0.474764,-0.478147,-0.493454,-0.505216,-0.497804,-0.510855,-0.474925,-0.475892,-0.48427,-0.491843,-0.472991,-0.488459,-0.461229,-0.470574,-0.49281,-0.478147,-0.481209,-0.460262,-0.476858,-0.486365,-0.465418,-0.452206,-0.483303,-0.459779,-0.426104,-0.492004,-0.457362,-0.462196,-0.467996,-0.477986,-0.422237,-0.476697,-0.456557,-0.470413,-0.457362,-0.428682,-0.446406,-0.426104,-0.438027,-0.448178,-0.444311,-0.412248,-0.422076,-0.414181,-0.389046,-0.419176,-0.381151,-0.389368,-0.420948,-0.396296,-0.376639,-0.370516,-0.393396,-0.373417,-0.375833,-0.356337,-0.414181,-0.358915,-0.350376,-0.385018,-0.324435,-0.36246,-0.352632,-0.344575,-0.341997,-0.363105,-0.310578,-0.35811,-0.322824,-0.322018,-0.340064,-0.29366,-0.314445,-0.300911,-0.297044,-0.294627,-0.292855,-0.265141,-0.270781,-0.280287,-0.232755,-0.272392,-0.248868,-0.218737,-0.241778,-0.22051,-0.248545,-0.227438,-0.240328,-0.234689,-0.218576,-0.220671,-0.212292,-0.236461,-0.184579,-0.212292,-0.21906,-0.225827,-0.206975,-0.2363,-0.200853,-0.210359,-0.213098,-0.220026,-0.245806,-0.189252,-0.220671,-0.230338,-0.220993,-0.235817,-0.206492,-0.188929,-0.190057,-0.215998,-0.174589,-0.21052,-0.209876,-0.155899,-0.194569,-0.157994,-0.20053,-0.175717,-0.147521,-0.158316,-0.170884,-0.157188,-0.138175,-0.15026,-0.11304,-0.142526,-0.11739,-0.123674,-0.092738,-0.094511,-0.085004,-0.069698,-0.09435,-0.065669,-0.082265,-0.072759,-0.033122,-0.074692,-0.047301,-0.037473,-0.065992,-0.030867,-0.014915,-0.048912,-0.041662,-0.038762,-0.085004,-0.023777,-0.044723,-0.065186,-0.053585,-0.041501,-0.044562,-0.042306,-0.073242,-0.065992,-0.060836,-0.121741,-0.066797,-0.119002,-0.096928,-0.110462,-0.117229,-0.128347,-0.101761,-0.155093,-0.131247,-0.109173,-0.139142,-0.135114,-0.135114,-0.160572,-0.153804,-0.170884,-0.15751,-0.156221,-0.18039,-0.164761,-0.159283,-0.198436,-0.218576,-0.202464,-0.174106,-0.219221,-0.200692,-0.211487,-0.23775,-0.208909,-0.254185,-0.237106,-0.255957,-0.27787,-0.247579,-0.3051,-0.291404,-0.290277,-0.320568,-0.326368,-0.313317,-0.321535,-0.320407,-0.343448,-0.338936,-0.345864,-0.330558,-0.32943,-0.363266,-0.377445,-0.351181,-0.357788,-0.312351,-0.368744,-0.385018,-0.344575,-0.388723,-0.386629,-0.376478,-0.389368,-0.43126,-0.391785,-0.392752,-0.430938,-0.415631,-0.436577,-0.418048,-0.449467,-0.431421,-0.474764,-0.493454,-0.477181,-0.496515,-0.508761,-0.50441,-0.488781,-0.529385,-0.510855,-0.558548,-0.550492,-0.551781,-0.561448,-0.551942,-0.570471,-0.58175,-0.567732,-0.588356,-0.601407,-0.601085,-0.635082,-0.63766,-0.619936,-0.640721,-0.667146,-0.660701,-0.664246,-0.697276,-0.703721,-0.71935,-0.703399,-0.731918,-0.742552,-0.737235,-0.768009,-0.753992,-0.734496,-0.767526,-0.777999,-0.78815,-0.793789,-0.804746,-0.799751,-0.837132,-0.845671,-0.841321,-0.861784,-0.857272,-0.858561,-0.86275,-0.882085,-0.875157,-0.87854,-0.878218,-0.876446,-0.902709,-0.887886,-0.912215,-0.902065,-0.903837,-0.935095,-0.910121,-0.925589,-0.929294,-0.929294,-0.921399,-0.938479,-0.915921,-0.943312,-0.927522,-0.922527,-0.919305,-0.92575,-0.89997,-0.917049,-0.903837,-0.890625,-0.886274,-0.86984,-0.840837,-0.846316,-0.836487,-0.829881,-0.814574,-0.820697,-0.777677,-0.813285,-0.773004,-0.746902,-0.760598,-0.731595,-0.761403,-0.71645,-0.67778,-0.69792,-0.678424,-0.628798,-0.628798,-0.585778,-0.545175,-0.560159,-0.49007,-0.490876,-0.484592,-0.421593,-0.38389,-0.368422,-0.3109,-0.279481,-0.24484,-0.168467,-0.168789,-0.146232,-0.067925,-0.033445,0.034067,0.04744,0.048084,0.112856,0.172634,0.196158,0.214687,0.258996,0.306689,0.328763,0.295572,0.312973,0.357766,0.33972,0.310878,0.340525,0.278654,0.299761,0.234344,0.194869,0.190518,0.119785,0.059202,0.037611,-0.029416,-0.106434,-0.166855,-0.248062,-0.29221,-0.355532,-0.449789,-0.540019,-0.591095,-0.658284,-0.693248,-0.796528,-0.867423,-0.918338,-0.949757,-0.993422,-1.025969,-1.041276,-1.052715,-1.074628,-1.09348,-1.088485,-1.105725,-1.121354,-1.109753,-1.122321,-1.145845,-1.154385,-1.157446,-1.154546,-1.151323,-1.145523,-1.159702,-1.15084,-1.16083,-1.17372,-1.179037,-1.171947,-1.17662,-1.172592,-1.170336,-1.177909,-1.167436,-1.158091,-1.170819,-1.179681,-1.173397,-1.169369,-1.173881,-1.176781,-1.168402,-1.150518,-1.17372,-1.148423,-1.157929,-1.153257,-1.150195,-1.154224,-1.147617,-1.1423,-1.133277,-1.148584,-1.10218,-1.145362,-1.100086,-1.094769,-1.10782,-1.077851,-1.095252,-1.092352,-1.060449,-1.053521,-1.08349,-1.019041,-1.03048,-1.051588,-1.028225,-1.049493,-0.999706,-1.020652,-0.99455,-1.015012,-0.998417,-1.014046,-0.983916,-0.987138,-1.006473,-0.959747,-0.992133,-0.975698,-0.955235,-0.977954,-0.984077,-0.94734,-0.976987,-1.000511,-0.952496,-0.983754,-0.955719,-0.97022,-0.986332,-0.957652,-0.959102,-0.963775,-0.964742,-0.953302,-0.974248,-0.958458,-0.972637,-0.98311,-0.916888,-0.963775,-0.967159,-0.936384,-0.937834,-0.956686,-0.928811,-0.949596,-0.937512,-0.927039,-0.936384,-0.895297,-0.930745,-0.93864,-0.910282,-0.915438,-0.901742,-0.88853,-0.894331,-0.910926,-0.865812,-0.874673,-0.840999,-0.860656,-0.879507,-0.859206,-0.871934,-0.849377,-0.845832,-0.858078,-0.835359,-0.852438,-0.857755,-0.852599,-0.818602,-0.837615,-0.821986,-0.847121,-0.842126,-0.858239,-0.811352,-0.823275,-0.826014,-0.811029,-0.833265,-0.789278,-0.828431,-0.845027,-0.824725,-0.811513,-0.793628,-0.822792,-0.802812,-0.798623,-0.80974,-0.846477,-0.788311,-0.766559,-0.805229,-0.768332,-0.782027,-0.775421,-0.772199,-0.782833,-0.787667,-0.760275,-0.770265,-0.754475,-0.728051,-0.77236,-0.716127,-0.756247,-0.728212,-0.729501,-0.709844,-0.72515,-0.711616,-0.716289,-0.732401
