-1.088807,-1.078012,-1.082362,-1.097347,-1.081879,-1.077529,-1.080429,-1.079784,-1.084940,-1.079140,-1.069150,-1.088324,-1.080912,-1.062222,-1.083168,-1.063511,-1.061577,-1.072050,-1.065444,-1.088807,-1.078173,-1.071245,-1.069311,-1.054488,-1.069795,-1.077690,-1.072534,-1.073662,-1.095091,-1.072534,-1.078656,-1.094447,-1.100247,-1.087840,-1.103469,-1.122321,-1.116037,-1.113137,-1.095413,-1.101697,-1.100892,-1.096219,-1.093158,-1.095091,-1.092674,-1.095736,-1.066572,-1.080107,-1.079140,-1.073984,-1.084940,-1.075273,-1.080912,-1.081073,-1.073500,-1.074467,-1.086551,-1.060611,-1.063511,-1.095252,-1.080429,-1.087518,-1.080751,-1.089613,-1.090418,-1.096541,-1.102986,-1.110076,-1.080268,-1.090902,-1.113459,-1.093319,-1.115070,-1.105886,-1.106047,-1.124416,-1.119421,-1.139239,-1.124416,-1.124416,-1.123610,-1.131505,-1.113943,-1.154062,-1.128283,-1.142461,-1.146490,-1.131827,-1.139400,-1.155513,-1.146006,-1.133116,-1.160668,-1.139561,-1.153096,-1.156157,-1.161313,-1.157607,-1.173075,-1.148423,-1.159541,-1.161474,-1.161313,-1.174203,-1.168080,-1.167919,-1.178392,-1.156157,-1.165019,-1.171464,-1.155674,-1.175814,-1.184193,-1.165019,-1.170014,-1.181453,-1.165502,-1.182581,-1.179359,-1.176620,-1.153418,-1.176942,-1.177587,-1.165663,-1.164213,-1.174525,-1.172592,-1.166952,-1.180970,-1.155190,-1.166308,-1.159380,-1.155029,-1.169369,-1.170175,-1.160991,-1.178876,-1.177103,-1.161957,-1.179842,-1.157124,-1.175975,-1.159057,-1.174042,-1.176298,-1.174686,-1.174847,-1.173720,-1.173881,-1.171303,-1.180003,-1.175170,-1.188704,-1.173236,-1.174203,-1.172592,-1.181131,-1.181131,-1.165824,-1.187093,-1.172108,-1.172269,-1.190799,-1.175814,-1.168564,-1.191927,-1.176298,-1.181292,-1.178553,-1.187576,-1.191282,-1.174042,-1.188543,-1.177264,-1.174525,-1.180487,-1.173558,-1.190315,-1.186609,-1.172269,-1.175975,-1.191121,-1.183709,-1.179037,-1.180648,-1.193860,-1.189187,-1.179037,-1.188382,-1.180165,-1.181615,-1.157607,-1.189832,-1.176298,-1.181131,-1.188221,-1.179520,-1.180809,-1.182742,-1.177748,-1.187898,-1.183387,-1.173558,-1.204494,-1.152935,-1.179037,-1.184837,-1.176298,-1.187415,-1.183065,-1.186609,-1.201111,-1.182420,-1.179520,-1.190315,-1.175170,-1.183387,-1.179681,-1.173881,-1.174525,-1.172269,-1.165180,-1.164374,-1.161474,-1.174364,-1.178231,-1.156479,-1.148423,-1.177748,-1.142945,-1.158896,-1.160991,-1.156640,-1.167597,-1.174525,-1.172431,-1.185320,-1.194182,-1.170497,-1.209811,-1.190960,-1.203205,-1.198372,-1.205944,-1.178876,-1.205139,-1.185320,-1.202238,-1.182581,-1.193216,-1.196116,-1.179520,-1.181937,-1.179198,-1.177587,-1.151646,-1.161474,-1.173558,-1.153096,-1.165502,-1.109109,-1.116521,-1.085907,-1.083973,-1.083490,-1.050943,-1.027741,-1.026291,-0.988910,-0.965708,-0.947824,-0.901742,-0.923494,-0.855177,-0.835843,-0.807163,-0.745130,-0.694376,-0.666662,-0.598346,-0.545175,-0.528257,-0.432710,-0.420626,-0.338453,-0.282381,-0.203431,-0.164277,-0.075498,-0.046173,0.010220,0.108667,0.116401,0.213559,0.252068,0.313779,0.381129,0.400947,0.438489,0.475065,0.501489,0.533069,0.564167,0.598003,0.628939,0.656330,0.689361,0.715946,0.736087,0.763962,0.787647,0.799893,0.816811,0.829217,0.839529,0.838563,0.843074,0.840335,0.828573,0.820194,0.796831,0.762511,0.718041,0.661486,0.617177,0.532425,0.504873,0.391602,0.328924,0.269469,0.157810,0.076281,0.006998,-0.122385,-0.200853,-0.254829,-0.382278,-0.460101,-0.546786,-0.658284,-0.733045,-0.821986,-0.913988,-0.991488,-1.060772,-1.099280,-1.107498,-1.113137,-1.105564,-1.104758,-1.123932,-1.136339,-1.148906,-1.149873,-1.139884,-1.125382,-1.127155,-1.121676,-1.156157,-1.160024,-1.143106,-1.161474,-1.127316,-1.130377,-1.151646,-1.164213,-1.169208,-1.163569,-1.140528,-1.146812,-1.150679,-1.171464,-1.171786,-1.162280,-1.160668,-1.141978,-1.157446,-1.170497,-1.174525,-1.180487,-1.172269,-1.175170,-1.143912,-1.168564,-1.151646,-1.180970,-1.181937,-1.179198,-1.175170,-1.175331,-1.160185,-1.168402,-1.166308,-1.152451,-1.176459,-1.142461,-1.148584,-1.154707,-1.153901,-1.143267,-1.154062,-1.151162,-1.134083,-1.135372,-1.132955,-1.130699,-1.104920,-1.117810,-1.100408,-1.090257,-1.092030,-1.093963,-1.059966,-1.043854,-1.071728,-1.043370,-1.050782,-1.032897,-1.036281,-1.011629,-1.023230,-1.008406,-1.029836,-0.993261,-1.005828,-1.026291,-0.978921,-1.013562,-0.997450,-0.996967,-1.013885,-0.986977,-1.007278,-1.005345,-1.000189,-1.004700,-1.028225,-0.991166,-0.996000,-1.011790,-1.008890,-1.004056,-1.006634,-1.002606,-1.002928,-1.002445,-0.979243,-1.001800,-0.973281,-1.010018,-1.001639,-0.988588,-0.991488,-0.989233,-0.974087,-0.977471,-0.971348,-0.959908,-0.998739,-0.957008,-0.978276,-0.981176,-0.970059,-1.007923,-0.992294,-0.990199,-1.036442,-1.012434,-1.004378,-1.052877,-1.025324,-1.037248,-1.041598,-1.043048,-1.039987,-1.044015,-1.046270,-1.048043,-1.047237,-1.042242,-1.055616,-1.049332,-1.044176,-1.044498,-1.058677,-1.052554,-1.064477,-1.050943,-1.056744,-1.056421,-1.047237,-1.074306,-1.068344,-1.046915,-1.062866,-1.061094,-1.055132,-1.055132,-1.061255,-1.057227,-1.062222,-1.052393,-1.055132,-1.051588,-1.049815,-1.063188,-1.051749,-1.067700,-1.073017,-1.062383,-1.067217,-1.063833,-1.051588,-1.073984,-1.078173,-1.065766,-1.070761,-1.055293,-1.060772,-1.050621,-1.065444,-1.040470,-1.065766,-1.059644,-1.049171,-1.078656,-1.045948,-1.072534,-1.068183,-1.072534,-1.068022,-1.072695,-1.091063,-1.066733,-1.050137,-1.066894,-1.063672,-1.034670,-1.075434,-1.065605,-1.073984,-1.064155,-1.075917,-1.062544,-1.073823,-1.078979,-1.077206,-1.105242,-1.095091,-1.104920,-1.105564,-1.108464,-1.121676,-1.119904,-1.115876,-1.127960,-1.115715,-1.107336,-1.131183,-1.104275,-1.112976,-1.115232,-1.107498,-1.095413,-1.091707,-1.101697,-1.108787,-1.100892,-1.107659,-1.114104,-1.099603,-1.121838,-1.121354,-1.104758,-1.124899,-1.127960,-1.125705,-1.107175,-1.123771,-1.124899,-1.119421,-1.122160,-1.107014,-1.118615,-1.110881,-1.104275,-1.110559,-1.100569,-1.109592,-1.107659,-1.098152,-1.114426,-1.101053,-1.087035,-1.108787,-1.091869,-1.106209,-1.099119,-1.105242,-1.088324,-1.101536,-1.092191,-1.098475,-1.083973,-1.089613,-1.106370,-1.092835,-1.103792,-1.093158,-1.089613,-1.104920,-1.111365,-1.089452,-1.097830,-1.118132,-1.082040,-1.107981,-1.083168,-1.081718,-1.093802,-1.080751,-1.068667,-1.083651,-1.059644,-1.062866,-1.063672,-1.037086,-1.048204,-1.035314,-1.044981,-1.049493,-1.034508,-1.039342,-1.038375,-1.024680,-1.021135,-1.038375,-1.002928,-1.038375,-1.037570,-1.026774,-1.034831,-1.038859,-1.004217,-1.041920,-1.016301,-0.989394,-1.053682,-1.005023,-1.001156,-1.003412,-0.984077,-1.002767,-0.999545,-0.994227,-0.995516,-1.007762,-0.996322,-1.010501,-0.970220,-1.034992,-1.008084,-1.016140,-1.043370,-1.028063,-1.042565,-1.057549,-1.065605,-1.052071,-1.065605,-1.058999,-1.045304,-1.077529,-1.073339,-1.058516,-1.065283,-1.058355,-1.058194,-1.057549,-1.047237,-1.048526,-1.025485,-1.047721,-1.046432,-1.020813,-1.033542,-1.041115,-1.030641,-1.054004,-1.080268,-1.069956,-1.100730,-1.093319,-1.091385,-1.114426,-1.122321,-1.123288,-1.114909,-1.120871,-1.120549,-1.128766,-1.120710,-1.114265,-1.125543,-1.124093,-1.110398,-1.110237,-1.121676,-1.118776,-1.107175,-1.111042,-1.125221,-1.121032,-1.117165,-1.130538,-1.109914,-1.121838,-1.110720,-1.114748,-1.107498,-1.095252,-1.110559,-1.099925,-1.095897,-1.103308,-1.109109,-1.089291,-1.093641,-1.091869,-1.089774,-1.099119,-1.109109,-1.098636,-1.111203,-1.099603,-1.106209,-1.136178,-1.104436,-1.118937,-1.112492,-1.123771,-1.108948,-1.109592,-1.115715,-1.123449,-1.105564,-1.108142,-1.136339,-1.088646,-1.127155,-1.135694,-1.106047,-1.121193,-1.137950,-1.111526,-1.127960,-1.135372,-1.130538,-1.142784,-1.112815,-1.148423,-1.140367,-1.151968,-1.148745,-1.141334,-1.146167,-1.156802,-1.149229,-1.142461,-1.158735,-1.146651,-1.146812,-1.155190,-1.155190,-1.151323,-1.151807,-1.158252,-1.157124,-1.147940,-1.152773,-1.161635,-1.149390,-1.145523,-1.151968,-1.129088,-1.157607,-1.150034,-1.141978,-1.157929,-1.137789,-1.149068,-1.152451,-1.144234,-1.123771,-1.138272,-1.137950,-1.122160,-1.127316,-1.123610,-1.112492,-1.120065,-1.133600,-1.135211,-1.137628,-1.143267,-1.154707,-1.148745,-1.151001,-1.165502,-1.160024,-1.156157,-1.180326,-1.163085,-1.165663,-1.175170,-1.159218,-1.179359,-1.152290,-1.175814,-1.172108,-1.179198,-1.176620,-1.169047,-1.176459,-1.187415,-1.196921,-1.165824,-1.185643,-1.182098,-1.180165,-1.172914,-1.177748,-1.168725,-1.183548,-1.178876,-1.165663,-1.192571,-1.180003,-1.174686,-1.180809,-1.187415,-1.176620,-1.178553,-1.176781,-1.185965,-1.167597,-1.176459,-1.188060,-1.159541,-1.177587,-1.169047,-1.155996,-1.179198,-1.168725,-1.173558,-1.169853,-1.170175,-1.161313,-1.162441,-1.151968,-1.189993,-1.168241,-1.169853,-1.170336,-1.174203,-1.153740,-1.162280,-1.163569,-1.172753,-1.167436,-1.156157,-1.190960,-1.167597,-1.180326,-1.181131,-1.169369,-1.165019,-1.171786,-1.158091,-1.136661,-1.182904,-1.136983,-1.132311,-1.124093,-1.115876,-1.116843,-1.114587,-1.088968,-1.095413,-1.085585,-1.051426,-1.073823,-1.051104,-1.068022,-1.040631,-1.064961,-1.070600,-1.047559,-1.063511,-1.060288,-1.052393,-1.066250,-1.068022,-1.010501,-1.035314,-1.021135,-0.972476,-0.984399,-0.979565,-0.963936,-0.953624,-0.957169,-0.929617,-0.918177,-0.909798,-0.884985,-0.900776,-0.877090,-0.884341,-0.876768,-0.851633,-0.867262,-0.860656,-0.833426,-0.866939,-0.824564,-0.813607,-0.862589,-0.808774,-0.846960,-0.813769,-0.820375,-0.799590,-0.831009,-0.803134,-0.799106,-0.802812,-0.778805,-0.766398,-0.763981,-0.765754,-0.723217,-0.734979,-0.733207,-0.739974,-0.722572,-0.734818,-0.730306,-0.723700,-0.753830,-0.737718,-0.760437,-0.760275,-0.739007,-0.778805,-0.772521,-0.765593,-0.789278,-0.798945,-0.766720,-0.794273,-0.781222,-0.773004,-0.763498,-0.755925,-0.726923,-0.767204,-0.728534,-0.724828,-0.747224,-0.703238,-0.722089,-0.723539,-0.723217,-0.714194,-0.724506,-0.720639,-0.753025,-0.719189,-0.738363,-0.776710,-0.728051,-0.795400,-0.768815,-0.757375,-0.806840,-0.787989,-0.778321,-0.824725,-0.779288,-0.797012,-0.850988,-0.792661,-0.835198,-0.814091,-0.826497,-0.804907,-0.831976,-0.834715,-0.831653,-0.829559,-0.846155,-0.868712,-0.822308,-0.848894,-0.864684,-0.866617,-0.881924,-0.884502,-0.880152,-0.899003,-0.887886,-0.888530,-0.939768,-0.895136,-0.907543,-0.947018,-0.916405,-0.928005,-0.941057,-0.920594,-0.957975,-0.939445,-0.954108,-0.982465,-0.959264,-0.939606,-0.969253,-0.957813,-0.938479,-0.960230,-0.955719,-0.927039,-0.945890,-0.924783,-0.919466,-0.923333,-0.893525,-0.901903,-0.890141,-0.909960,-0.901259,-0.895781,-0.885469,-0.894008,-0.877574,-0.900292,-0.907220,-0.876768,-0.907704,-0.874835,-0.870001,-0.898359,-0.887080,-0.910604,-0.912376,-0.872257,-0.909476,-0.943796,-0.915438,-0.956686,-0.962325,-0.959908,-0.979565,-1.023874,-1.039664,-1.037248,-1.033219,-1.067861,-1.067055,-1.078173,-1.085424,-1.096219,-1.103308,-1.114265,-1.104758,-1.094447,-1.116359,-1.110720,-1.096863,-1.124093,-1.098314,-1.103147,-1.109431,-1.110559,-1.107498,-1.115876,-1.111848,-1.112009,-1.110076,-1.101858,-1.114265,-1.105242,-1.126994,-1.085101,-1.102503,-1.101858,-1.110398,-1.094608,-1.103792,-1.094285,-1.099764,-1.100730,-1.101214,-1.115232,-1.103631,-1.119099,-1.114104,-1.115876,-1.116843,-1.120871,-1.128283,-1.121193,-1.143428,-1.117004,-1.131183,-1.152290,-1.145201,-1.133277,-1.161474,-1.154546,-1.172592,-1.164213,-1.160185,-1.184193,-1.150195,-1.168402,-1.166147,-1.162280,-1.178553,-1.180003,-1.170175,-1.186771,-1.188060,-1.187254,-1.195471,-1.176781,-1.168725,-1.185159,-1.187093,-1.184676,-1.188060,-1.171142,-1.173236,-1.193860,-1.186287,-1.181937,-1.173075,-1.162924,-1.198049,-1.176620,-1.173720,-1.199338,-1.176136,-1.177103,-1.188060,-1.171303,-1.185159,-1.174042,-1.178553,-1.179842,-1.171947,-1.181615,-1.154062,-1.173558,-1.178553,-1.177748,-1.170819,-1.182581,-1.179198,-1.186609,-1.184193,-1.193699,-1.183870,-1.179681,-1.195471,-1.171947,-1.204816,-1.194182,-1.178714,-1.211100,-1.177425,-1.206428,-1.175331,-1.196599,-1.207233,-1.189349,-1.194505,-1.206267,-1.195310,-1.194182,-1.199499,-1.199983,-1.207717,-1.211100,-1.191282,-1.205139,-1.219479,-1.193377,-1.215128,-1.209811,-1.194666,-1.217223,-1.195149,-1.223185,-1.191282,-1.219157,-1.208361,-1.209328,-1.211584,-1.209811,-1.205139,-1.191443,-1.231402,-1.164374,-1.213195,-1.198372,-1.206750,-1.205139,-1.194182,-1.199177,-1.187093,-1.187737,-1.196438,-1.213034,-1.189832,-1.199499,-1.196116,-1.181776,-1.194988,-1.191282,-1.173720,-1.203044,-1.190799,-1.204816,-1.209328,-1.189832,-1.174364,-1.186771,-1.179198,-1.175170,-1.179359,-1.182581,-1.167275,-1.186771,-1.170819,-1.183709,-1.185482,-1.167275,-1.183387,-1.170336,-1.192571,-1.160668,-1.160668,-1.158574,-1.175653,-1.143106,-1.167436,-1.164858,-1.147134,-1.163891,-1.147617,-1.159380,-1.170175,-1.172753,-1.159380,-1.172914,-1.152612,-1.161957,-1.178876,-1.151323,-1.173075,-1.183387,-1.169853,-1.185643,-1.187254,-1.170175,-1.196599,-1.171142,-1.184998,-1.211423,-1.173397,-1.195149,-1.198694,-1.177909,-1.199661,-1.200788,-1.192410,-1.198372,-1.200949,-1.176459,-1.191927,-1.185965,-1.185965,-1.166147,-1.185965,-1.169853,-1.149712,-1.152773,-1.157124,-1.121999,-1.106209,-1.140206,-1.087840,-1.102825,-1.091385,-1.074306,-1.042565,-1.050137,-0.997289,-1.000834,-0.965708,-0.913827,-0.915760,-0.877090,-0.871129,-0.811029,-0.769459,-0.765109,-0.700982,-0.654095,-0.612364,-0.558548,-0.510533,-0.455590,-0.374544,-0.339097,-0.251446,-0.198275,-0.132053,-0.080815,-0.016204,0.062908,0.122846,0.170217,0.224355,0.291382,0.333919,0.368883,0.404331,0.417704,0.436233,0.462980,0.473937,0.487954,0.506484,0.513573,0.523724,0.537259,0.532425,0.535970,0.535970,0.530975,0.526947,0.522596,0.507451,0.481510,0.478932,0.441228,0.414965,0.370817,0.337947,0.296055,0.225482,0.186329,0.128808,0.046634,0.024238,-0.080654,-0.138659,-0.193602,-0.301555,-0.360366,-0.455751,-0.530513,-0.637499,-0.715000,-0.782994,-0.860978,-0.971831,-1.028063,-1.068989,-1.158091,-1.180003,-1.180648,-1.176459,-1.181776,-1.170175,-1.170014,-1.175170,-1.177909,-1.176620,-1.174203,-1.183870,-1.173558,-1.187415,-1.181937,-1.190315,-1.183709,-1.197888,-1.184515,-1.173397,-1.195794,-1.181292,-1.203527,-1.183709,-1.190154,-1.209650,-1.203044,-1.200788,-1.219479,-1.216901,-1.222862,-1.229952,-1.188382,-1.206105,-1.196116,-1.208845,-1.221896,-1.226729,-1.221090,-1.214484,-1.202077,-1.196599,-1.231563,-1.223346,-1.218029,-1.214967,-1.210939,-1.238975,-1.202077,-1.210456,-1.227052,-1.215612,-1.212228,-1.226407,-1.221896,-1.205300,-1.226246,-1.225118,-1.211423,-1.214162,-1.222057,-1.213034,-1.206267,-1.216417,-1.214645,-1.217706,-1.219801,-1.200305,-1.221573,-1.205944,-1.199499,-1.218351,-1.202077,-1.223668,-1.194021,-1.210134,-1.194182,-1.195149,-1.201594,-1.199338,-1.187898,-1.204494,-1.201433,-1.195794,-1.208845,-1.173881,-1.189832,-1.193860,-1.178553,-1.202561,-1.173881,-1.184837,-1.183065,-1.170014,-1.174686,-1.180165,-1.175814,-1.165341,-1.194021,-1.159541,-1.184515,-1.167275,-1.160991,-1.166952,-1.150357,-1.140850,-1.160024,-1.138433,-1.139561,-1.173397,-1.144556,-1.150518,-1.142461,-1.153257,-1.157446,-1.142139,-1.141011,-1.147779,-1.129733,-1.141172,-1.161796,-1.132311,-1.168725,-1.146973,-1.155674,-1.165663,-1.155351,-1.159863,-1.176136,-1.155513,-1.146167,-1.176459,-1.136178,-1.156157,-1.146167,-1.155835,-1.153096,-1.164858,-1.147617,-1.130216,-1.150034,-1.108142,-1.126027,-1.114104,-1.134889,-1.121515,-1.124738,-1.135855,-1.143750,-1.106853,-1.146490,-1.145845,-1.139722,-1.165502,-1.151484,-1.171142,-1.153901,-1.175170,-1.172753,-1.184676,-1.180809,-1.190799,-1.182581,-1.187737,-1.195632,-1.171303,-1.178070,-1.189187,-1.170497,-1.182420,-1.176781,-1.167436,-1.175170,-1.175170,-1.159218,-1.177587,-1.170497,-1.163730,-1.182742,-1.176620,-1.172431,-1.176781,-1.161152,-1.179681,-1.166469,-1.176781,-1.191121,-1.156640,-1.166630,-1.185159,-1.161635,-1.169530,-1.179520,-1.173720,-1.169047,-1.171142,-1.179037,-1.164374,-1.171947,-1.177425,-1.169853,-1.171142,-1.153257,-1.155351,-1.137628,-1.122482,-1.136339,-1.117487,-1.134405,-1.117971,-1.101214,-1.096380,-1.092513,-1.100569,-1.084618,-1.082201,-1.103147,-1.092513,-1.069956,-1.087840,-1.065283,-1.073823,-1.088485,-1.069956,-1.090741,-1.079784,-1.085746,-1.087518,-1.096058,-1.082362,-1.077206,-1.106692,-1.095091,-1.102825,-1.096058,-1.116682,-1.087679,-1.120065,-1.092513,-1.109109,-1.090257,-1.084618,-1.099603,-1.065444,-1.075273,-1.069472,-1.087196,-1.064155,-1.071406,-1.063994,-1.074628,-1.054004,-1.048526,-1.067055,-1.016463,-1.052071,-1.027902,-1.025969,-1.029997,-1.019846,-1.014690,-1.022585,-1.010823,-0.992616,-1.013240,-0.990844,-0.999545,-0.978760,-0.972798,-0.958619,-0.974731,-0.953463,-0.952980,-0.947985,-0.926233,-0.928328,-0.894331,-0.922527,-0.887402,-0.885791,-0.914471,-0.875479,-0.896103,-0.901581,-0.857594,-0.871773,-0.893525,-0.836809,-0.878379,-0.876285,-0.850344,-0.836326,-0.837454,-0.833909,-0.806518,-0.800395,-0.832781,-0.813285,-0.805551,-0.776710,-0.791856,-0.781060,-0.778160,-0.786700,-0.760437,-0.774777,-0.775743,-0.746741,-0.782027,-0.758664,-0.767365,-0.769782,-0.749480,-0.765109,-0.766237,-0.748513,-0.763498,-0.743357,-0.740779,-0.781544,-0.758342,-0.739007,-0.774132,-0.751736,-0.752058,-0.746902,-0.768171,-0.736268,-0.771554,-0.761887,-0.737074,-0.761242,-0.751897,-0.750769,-0.742874,-0.748836,-0.751252,-0.734012,-0.736429,-0.727084,-0.724506,-0.752541,-0.718705,-0.724667,-0.766882,-0.716933,-0.738685,-0.758664,-0.734173,-0.777032,-0.786861,-0.757536,-0.774132,-0.782349,-0.745613,-0.785250,-0.780094,-0.783638,-0.808451,-0.809418,-0.801523,-0.791050,-0.803618,-0.831492,-0.838421,-0.806357,-0.851633,-0.820375,-0.841160,-0.828753,-0.826659,-0.817636,-0.845188,-0.814574,-0.832620,-0.853083,-0.797978,-0.854211,-0.824242,-0.836970,-0.855661,-0.829559,-0.825370,-0.863395,-0.852922,-0.815219,-0.850505,-0.829881,-0.873223,-0.859850,-0.867906,-0.859367,-0.859044,-0.854855,-0.845671,-0.857594,-0.879668,-0.886758,-0.862911,-0.879507,-0.885469,-0.848410,-0.897070,-0.912376,-0.892558,-0.928650,-0.941057,-0.946051,-0.948468,-0.919305,-0.935256,-0.964581,-0.952335,-0.947824,-0.956524,-0.966675,-0.972153,-0.993422,-0.971187,-0.997933,-1.019846,-1.005345,-1.011145,-1.001478,-1.023230,-1.033864,-1.027419,-1.038375,-1.056421,-1.036442,-1.054166,-1.078173,-1.023230,-1.075595,-1.058194,-1.060449,-1.094447,-1.077529,-1.072534,-1.086229,-1.071728,-1.083329,-1.083973,-1.084618,-1.112331,-1.089452,-1.107014,-1.100892,-1.101858,-1.104275,-1.104758,-1.103469,-1.092674,-1.117165,-1.086229,-1.118293,-1.105242,-1.112009,-1.110237,-1.122160,-1.097186,-1.128444,-1.122643,-1.110559,-1.147940,-1.129088,-1.134083,-1.135533,-1.140045,-1.146006,-1.143589,-1.145362,-1.159057,-1.164697,-1.136178,-1.148262,-1.152129,-1.153579,-1.149229,-1.158574,-1.177425,-1.156318,-1.146490,-1.160185,-1.168564,-1.163891,-1.174525,-1.174847,-1.150840,-1.167597,-1.172914,-1.173881,-1.183387,-1.166308,-1.176298,-1.184354,-1.161474,-1.189026,-1.190638,-1.175653,-1.184837,-1.184515,-1.185482,-1.191121,-1.169208,-1.184031,-1.195149,-1.196599,-1.184354,-1.196760,-1.193054,-1.177748,-1.179198,-1.203044,-1.196438,-1.181292,-1.179681,-1.206267,-1.175009,-1.198694,-1.204333,-1.184031,-1.206267,-1.203205,-1.196760,-1.196438,-1.204011,-1.181615,-1.192893,-1.183387,-1.196277,-1.214645,-1.165986,-1.210617,-1.189832,-1.191765,-1.188543,-1.194827,-1.206589,-1.199499,-1.202883,-1.189026,-1.205944,-1.189187,-1.204172,-1.189510,-1.211906,-1.196277,-1.201916,-1.198210,-1.208039,-1.196760,-1.180648,-1.215290,-1.198533,-1.193860,-1.210134,-1.200627,-1.198372,-1.206589,-1.187898,-1.210134,-1.179359,-1.211100,-1.221090,-1.171303,-1.204978,-1.192249,-1.199016,-1.199983,-1.199983,-1.213034,-1.186609,-1.207878,-1.195149,-1.204816,-1.193377,-1.196116,-1.194021,-1.195955,-1.207878,-1.194666,-1.198855,-1.204011,-1.201433,-1.204655,-1.210778,-1.186287,-1.185643,-1.205461,-1.188221,-1.185965,-1.208845,-1.199822,-1.189510,-1.194827,-1.207394,-1.205783,-1.200627,-1.197888,-1.189993,-1.201433,-1.208039,-1.183387,-1.201755,-1.202077,-1.193216,-1.207072,-1.203527,-1.179359,-1.182581,-1.193377,-1.172269,-1.180003,-1.202077,-1.172753,-1.180326,-1.203850,-1.184837,-1.186932,-1.190799,-1.163085,-1.188704,-1.171786,-1.178553,-1.174364,-1.171303,-1.176298,-1.189187,-1.165502,-1.190154,-1.169047,-1.166469,-1.189510,-1.163246,-1.177909,-1.159218,-1.177103,-1.165341,-1.171464,-1.161796,-1.184354,-1.155996,-1.151001,-1.173558,-1.157768,-1.156479,-1.169530,-1.163408,-1.157768,-1.168402,-1.135211,-1.170819,-1.167919,-1.146651,-1.165019,-1.150679,-1.147940,-1.157929,-1.160185,-1.148423,-1.173720,-1.152290,-1.150679,-1.180165,-1.141334,-1.153901,-1.125866,-1.146328,-1.157124,-1.155190,-1.147134,-1.156640,-1.142139,-1.152451,-1.163085,-1.149551,-1.163408,-1.166469,-1.164213,-1.171786,-1.182098,-1.165986,-1.169530,-1.189187,-1.173075,-1.187254,-1.170980,-1.190476,-1.179037,-1.179520,-1.184515,-1.197405,-1.179842,-1.200305,-1.197083,-1.198049,-1.201916,-1.178231,-1.198210,-1.194666,-1.182420,-1.201594,-1.199661,-1.189832,-1.186126,-1.192249,-1.188543,-1.192571,-1.194182,-1.203044,-1.199499,-1.190960,-1.190476,-1.190315,-1.191765,-1.195955,-1.194827,-1.184998,-1.211261,-1.194988,-1.187415,-1.204172,-1.169047,-1.190476,-1.198372,-1.190638,-1.195632,-1.198855,-1.172914,-1.194666,-1.193216,-1.185482,-1.198210,-1.182259,-1.193216,-1.185965,-1.171786,-1.179359,-1.203850,-1.198049,-1.191927,-1.189026,-1.187898,-1.184031,-1.181453,-1.187254,-1.196116,-1.188865,-1.200144,-1.211261,-1.189026,-1.206105,-1.214162,-1.182259,-1.195149,-1.203527,-1.202077,-1.201916,-1.195310,-1.189671,-1.209006,-1.199499,-1.185804,-1.221734,-1.198694,-1.199661,-1.199338,-1.215451,-1.198694,-1.201111,-1.193216,-1.207233,-1.194666,-1.185965,-1.209006,-1.180326,-1.192732,-1.205944,-1.210295,-1.198210,-1.197244,-1.186771,-1.213517,-1.198694,-1.182420,-1.218029,-1.181615,-1.211100,-1.202561,-1.200144,-1.201111,-1.191443,-1.195794,-1.213517,-1.202883,-1.190315,-1.218512,-1.186126,-1.193377,-1.201594,-1.209650,-1.205461,-1.205622,-1.196277,-1.218834,-1.216417,-1.206105,-1.219157,-1.183387,-1.199016,-1.214806,-1.199983,-1.201433,-1.201916,-1.186126,-1.214645,-1.196921,-1.192249,-1.231402,-1.193216,-1.208200,-1.199499,-1.203205,-1.214645,-1.205944,-1.204978,-1.204978,-1.197566,-1.198049,-1.215290,-1.211906,-1.201433,-1.200466,-1.199499,-1.208522,-1.203527,-1.197727,-1.212873,-1.204816,-1.187415,-1.222540,-1.211906,-1.190476,-1.215128,-1.211100,-1.188060,-1.211906,-1.191765,-1.212228,-1.217223,-1.206589,-1.210134,-1.189832,-1.197244,-1.212550,-1.192410,-1.205461,-1.208845,-1.216901,-1.215290,-1.198855,-1.205461,-1.210456,-1.205783,-1.189187,-1.208683,-1.197083,-1.202883,-1.210456,-1.218190,-1.201433,-1.213839,-1.200305,-1.205139,-1.209489,-1.191765,-1.221251,-1.200788,-1.212550,-1.210134,-1.208039,-1.203689,-1.209489,-1.196277,-1.219962,-1.221573,-1.194827,-1.219801,-1.191443,-1.212067,-1.206589,-1.217384,-1.199983,-1.231885,-1.213195,-1.220768,-1.210456,-1.198694,-1.215612,-1.220607,-1.229630,-1.204172,-1.214323,-1.214484,-1.220123,-1.200466,-1.215773,-1.227213,-1.203205,-1.226407,-1.225924,-1.213517,-1.227696,-1.220607,-1.220445,-1.220123,-1.197727,-1.230113,-1.234141,-1.199661,-1.224151,-1.216740,-1.228179,-1.230113,-1.212389,-1.207394,-1.241553,-1.225440,-1.224312,-1.228985,-1.212873,-1.236719,-1.228663,-1.226246,-1.215612,-1.216901,-1.213195,-1.218834,-1.223507,-1.206267,-1.220607,-1.210778,-1.204011,-1.198533,-1.179842,-1.177909,-1.190476,-1.163730,-1.139722,-1.118937,-1.103792,-1.098152,-1.052715,-1.041115,-0.994389,-0.985043,-0.937190,-0.875962,-0.841321,-0.806518,-0.734657,-0.671818,-0.670690,-0.591417,-0.525840,-0.485237,-0.424976,-0.348765,-0.313801,-0.236944,-0.185385,-0.125930,-0.057935,-0.022810,0.063875,0.108184,0.165222,0.229188,0.255452,0.308300,0.350354,0.376456,0.395308,0.413998,0.438973,0.457985,0.472164,0.486343,0.507128,0.508740,0.517440,0.525013,0.518085,0.513090,0.514057,0.487632,0.475226,0.474742,0.418832,0.402719,0.380968,0.310395,0.255774,0.256096,0.178434,0.119140,0.055335,0.003453,-0.054230,-0.136242,-0.181840,-0.276420,-0.343609,-0.433999,-0.517784,-0.634438,-0.694215,-0.789761,-0.871290,-0.904804,-1.039664,-1.096863,-1.162280,-1.183065,-1.200305,-1.185965,-1.198372,-1.198533,-1.192249,-1.230113,-1.211100,-1.185965,-1.198049,-1.197083,-1.194666,-1.209489,-1.215934,-1.225440,-1.202883,-1.183870,-1.213678,-1.191604,-1.230596,-1.229307,-1.195955,-1.208200,-1.213839,-1.220123,-1.237525,-1.208522,-1.217545,-1.226407,-1.216417,-1.217062,-1.213517,-1.221573,-1.235752,-1.207556,-1.212228,-1.216740,-1.226407,-1.224312,-1.223829,-1.227052,-1.222218,-1.226568,-1.221896,-1.209328,-1.231080,-1.223829,-1.219801,-1.225601,-1.212712,-1.229630,-1.223346,-1.211100,-1.230113,-1.207394,-1.223668,-1.230596,-1.216740,-1.232530,-1.205622,-1.244292,-1.221090,-1.220284,-1.220929,-1.214484,-1.226890,-1.213356,-1.229952,-1.208845,-1.235913,-1.213517,-1.225118,-1.214162,-1.232208,-1.204333,-1.242519,-1.209811,-1.231402,-1.221896,-1.231885,-1.209167,-1.226407,-1.211584,-1.207878,-1.235430,-1.203205,-1.234947,-1.198855,-1.225601,-1.221251,-1.205300,-1.224957,-1.204494,-1.224474,-1.207233,-1.221734,-1.204011,-1.213839,-1.215451,-1.201594,-1.204333,-1.221412,-1.199177,-1.229630,-1.214806,-1.185482,-1.231724,-1.195149,-1.225118,-1.222862,-1.195794,-1.224635,-1.214323,-1.192732,-1.221573,-1.209006,-1.199661,-1.227696,-1.191443,-1.205461,-1.192410,-1.207717,-1.215934,-1.199983,-1.204494,-1.205300,-1.214645,-1.221412,-1.215934,-1.205622,-1.208039,-1.209167,-1.192893,-1.200144,-1.200627,-1.194182,-1.180326,-1.210778,-1.201916,-1.211100,-1.189510,-1.186448,-1.200466,-1.192571,-1.195310,-1.214162,-1.180809,-1.208845,-1.205944,-1.189349,-1.210617,-1.195632,-1.200949,-1.202883,-1.195149,-1.209006,-1.201755,-1.202077,-1.201594,-1.187415,-1.198372,-1.200466,-1.209328,-1.206911,-1.206428,-1.193860,-1.198372,-1.211423,-1.200788,-1.223346,-1.230435,-1.224957,-1.226890,-1.214806,-1.215773,-1.210778,-1.212389,-1.219801,-1.215612,-1.212067,-1.218673,-1.212712,-1.213356,-1.209811,-1.204494,-1.212067,-1.215773,-1.202077,-1.211584,-1.203044,-1.198049,-1.208683,-1.190638,-1.185482,-1.198210,-1.200144,-1.178876,-1.183709,-1.193377,-1.187415,-1.175492,-1.171625,-1.166147,-1.157124,-1.138433,-1.164697,-1.139078,-1.149068,-1.165663,-1.131827,-1.158413,-1.168725,-1.139722,-1.131988,-1.161635,-1.145845,-1.143428,-1.135694,-1.137950,-1.129088,-1.108464,-1.121354,-1.113298,-1.108464,-1.104275,-1.113943,-1.094447,-1.106692,-1.105242,-1.090580,-1.112492,-1.111203,-1.106531,-1.127638,-1.112170,-1.116843,-1.128927,-1.107014,-1.141817,-1.142461,-1.123288,-1.142139,-1.133277,-1.130216,-1.136983,-1.143428,-1.144073,-1.160991,-1.130055,-1.141334,-1.157285,-1.134405,-1.156157,-1.168886,-1.153901,-1.145201,-1.159541,-1.147134,-1.150357,-1.143428,-1.135372,-1.158252,-1.132794,-1.148584,-1.124577,-1.149712,-1.147940,-1.150518,-1.125060,-1.161635,-1.132955,-1.111526,-1.149551,-1.113943,-1.123610,-1.128927,-1.124416,-1.121515,-1.131988,-1.128605,-1.131505,-1.121838,-1.132794,-1.137628,-1.129410,-1.143106,-1.130538,-1.138272,-1.135211,-1.144556,-1.125382,-1.148906,-1.132311,-1.147295,-1.173075,-1.135533,-1.153418,-1.166630,-1.153096,-1.165019,-1.172592,-1.151162,-1.195471,-1.179037,-1.174847,-1.192410,-1.177425,-1.168564,-1.194666,-1.168080,-1.165502,-1.163730,-1.179842,-1.163730,-1.161152,-1.176136,-1.171142,-1.159541,-1.168241,-1.172108,-1.151162,-1.160668,-1.159541,-1.154224,-1.150357,-1.152612,-1.130216,-1.147617,-1.148584,-1.122965,-1.165019,-1.133116,-1.138756,-1.127477,-1.137628,-1.125705,-1.152612,-1.123771,-1.141172,-1.136500,-1.129572,-1.145201,-1.131022,-1.131666,-1.136822,-1.130699,-1.146812,-1.145039,-1.126188,-1.146490,-1.140206,-1.114748,-1.127316,-1.131988,-1.138595,-1.111365,-1.127316,-1.110398,-1.104920,-1.102664,-1.133439,-1.152935,-1.117004,-1.164374,-1.153418,-1.131183,-1.165341,-1.174525,-1.170336,-1.186771,-1.169530,-1.170336,-1.183387,-1.164535,-1.187254,-1.152773,-1.173236,-1.184031,-1.169369,-1.174525,-1.156640,-1.146490,-1.158735,-1.151162,-1.131988,-1.149873,-1.134566,-1.131183,-1.132794,-1.129733,-1.107659,-1.136500,-1.115070,-1.130377,-1.136017,-1.118293,-1.135533,-1.144073,-1.136178,-1.138756,-1.152612,-1.161474,-1.169530,-1.170819,-1.177103,-1.181937,-1.168080,-1.204816,-1.191121,-1.181453,-1.203044,-1.191282,-1.185804,-1.194343,-1.200627,-1.180648,-1.204172,-1.183870,-1.195794,-1.181937,-1.188382,-1.183387,-1.191121,-1.183870,-1.193377,-1.194182,-1.173075,-1.192410,-1.160185,-1.199177,-1.180487,-1.175653,-1.188704,-1.195632,-1.176781,-1.192732,-1.189349,-1.174847,-1.207394,-1.166147,-1.199661,-1.191282,-1.178392,-1.177909,-1.181615,-1.178714,-1.183065,-1.183226,-1.172914,-1.200788,-1.179520,-1.196116,-1.178231,-1.186609,-1.192732,-1.196277,-1.182420,-1.195149,-1.191443,-1.150357,-1.204816,-1.184193,-1.195794,-1.208039,-1.183709,-1.208200,-1.195149,-1.189349,-1.208683,-1.187898,-1.203205,-1.210778,-1.175653,-1.206267,-1.198372,-1.198694,-1.212873,-1.203044,-1.206428,-1.208361,-1.199499,-1.209489,-1.206911,-1.181615,-1.190960,-1.202238,-1.194182,-1.195955,-1.212712,-1.205300,-1.190315,-1.200466,-1.205783,-1.217223,-1.207878,-1.204172,-1.206105,-1.183226,-1.202722,-1.195149,-1.177587,-1.183870,-1.183709,-1.161957,-1.176459,-1.162119,-1.141011,-1.158574,-1.123127,-1.138272,-1.140206,-1.138111,-1.115232,-1.134083,-1.127799,-1.112009,-1.127155,-1.124577,-1.121999,-1.143106,-1.148584,-1.147779,-1.140367,-1.151807,-1.153096,-1.138756,-1.140689,-1.155513,-1.128121,-1.145845,-1.122482,-1.111365,-1.142300,-1.109109,-1.105564,-1.127316,-1.075273,-1.088968,-1.089613,-1.062222,-1.106209,-1.086229,-1.076401,-1.104920,-1.083973,-1.086713,-1.113943,-1.131505,-1.129410,-1.133761,-1.150518,-1.143106,-1.146167,-1.167113,-1.161635,-1.163246,-1.175009,-1.176298,-1.155190,-1.172431,-1.176459,-1.162602,-1.179359,-1.177748,-1.172592,-1.183387,-1.181615,-1.159218,-1.187415,-1.155674,-1.164374,-1.181292,-1.156157,-1.174847,-1.144717,-1.164052,-1.161796,-1.126188,-1.157124,-1.167113,-1.135694,-1.170336,-1.144395,-1.132150,-1.141495,-1.118776,-1.134889,-1.118937,-1.129733,-1.111526,-1.117971,-1.119743,-1.082846,-1.095413,-1.084940,-1.100730,-1.066089,-1.078334,-1.059644,-1.058999,-1.053360,-1.073662,-1.035959,-1.061094,-1.084135,-1.011951,-1.067700,-1.064800,-1.054649,-1.084296,-1.055132,-1.050621,-1.080429,-1.049654,-1.031930,-1.054327,-1.035153,-1.050137,-1.031608,-1.060611,-1.032575,-1.060449,-1.044659,-1.045787,-1.017590,-1.034992,-1.055938,-1.018074,-1.043209,-1.040953,-1.036925,-1.044498,-1.066411,-1.042404,-1.077206,-1.049332,-1.033219,-1.063350,-1.016785,-1.033381,-1.026936,-1.034670,-1.042887,-1.019846,-1.018557,-1.040953,-1.016785,-1.029514,-1.039181,-0.990199,-1.008406,-1.008567,-0.991327,-0.982465,-0.976343,-0.936706,-0.962325,-0.952819,-0.952819,-0.961036,-0.927844,-0.941862,-0.952496,-0.920755,-0.960069,-0.957169,-0.959908,-0.957813,-0.963453,-0.994227,-1.000511,-0.983110,-1.001639,-1.011468,-1.021135,-1.042726,-1.023713,-1.022424,-1.031286,-1.040953,-1.054166,-1.053843,-1.050621,-1.058033,-1.076401,-1.044015,-1.053199,-1.065928,-1.042887,-1.052071,-1.060288,-1.046915,-1.091385,-1.068828,-1.053038,-1.081396,-1.063027,-1.077851,-1.087840,-1.073662,-1.073984,-1.088163,-1.076240,-1.088646,-1.100086,-1.096380,-1.109109,-1.091707,-1.083168,-1.102180,-1.088324,-1.076723,-1.078656,-1.103953,-1.083490,-1.096058,-1.058194,-1.073500,-1.063027,-1.067700,-1.083651,-1.069956,-1.057710,-1.086874,-1.049493,-1.073823,-1.078656,-1.069956,-1.096380,-1.088163,-1.085424,-1.092835,-1.103631,-1.089129,-1.092674,-1.106370,-1.125221,-1.136822,-1.132633,-1.152290,-1.145845,-1.146812,-1.147295,-1.145684,-1.155029,-1.164374,-1.149551,-1.148423,-1.163891,-1.141656,-1.158574,-1.156479,-1.156479,-1.170175,-1.179198,-1.163085,-1.167758,-1.179842,-1.163246,-1.182742,-1.169208,-1.181453,-1.163730,-1.179359,-1.177587,-1.173075,-1.154707,-1.165986,-1.150840,-1.151968,-1.171142,-1.134889,-1.151001,-1.157768,-1.143589,-1.154707,-1.163085,-1.156802,-1.180809,-1.177909,-1.157929,-1.187093,-1.187254,-1.177425,-1.192410,-1.182420,-1.190960,-1.194182,-1.185482,-1.199983,-1.192893,-1.190960,-1.200627,-1.181292,-1.202077,-1.183548,-1.188382,-1.197244,-1.195632,-1.177587,-1.191282,-1.193860,-1.197405,-1.202400,-1.192893,-1.174847,-1.184354,-1.190638,-1.186609,-1.184837,-1.191604,-1.190638,-1.195149,-1.183065,-1.199661,-1.184354,-1.180326,-1.193699,-1.179198,-1.171303,-1.189993,-1.164858,-1.167597,-1.171947,-1.174686,-1.175170,-1.173881,-1.171142,-1.178231,-1.154062,-1.185804,-1.176459,-1.163891,-1.153418,-1.165824,-1.157446,-1.154385,-1.174686,-1.161957,-1.171303,-1.178070,-1.166469,-1.155513,-1.158091,-1.149229,-1.165180,-1.151807,-1.143589,-1.157124,-1.145201,-1.162441,-1.134244,-1.132955,-1.143912,-1.117810,-1.127155,-1.123610,-1.106047,-1.082846,-1.109914,-1.084618,-1.101697,-1.098958,-1.083812,-1.075917,-1.081879,-1.066250,-1.086390,-1.073984,-1.051749,-1.088968,-1.046109,-1.064477,-1.055938,-1.041920,-1.061255,-1.040631,-1.042081,-1.060611,-1.038859,-1.041276,-1.078173,-1.011145,-1.073500,-1.055938,-1.065928,-1.085585,-1.075112,-1.061416,-1.088807,-1.069311,-1.069150,-1.109109,-1.088968,-1.103792,-1.094124,-1.116843,-1.102825,-1.114104,-1.103631,-1.124738,-1.118615,-1.117487,-1.159380,-1.129410,-1.139561,-1.155513,-1.138433,-1.144878,-1.147779,-1.130699,-1.136339,-1.130861,-1.104436,-1.116198,-1.080268,-1.085907,-1.074145,-1.063833,-1.066733,-1.027902,-1.030319,-1.034670,-1.006956,-0.979404,-0.976504,-0.926233,-0.908832,-0.892880,-0.860011,-0.808774,-0.776388,-0.704365,-0.670690,-0.650872,-0.581267,-0.504088,-0.455107,-0.383729,-0.337164,-0.251123,-0.196502,-0.157994,-0.059386,-0.015076,0.041962,0.132836,0.152815,0.231444,0.288321,0.331502,0.368561,0.402881,0.437039,0.462336,0.491016,0.524691,0.552404,0.581246,0.614276,0.640218,0.664547,0.690972,0.709662,0.723036,0.736731,0.749783,0.748332,0.755422,0.760578,0.743338,0.737054,0.725775,0.695967,0.671637,0.642957,0.594297,0.563361,0.516151,0.487471,0.413193,0.349709,0.348582,0.250779,0.211142,0.155393,0.049696,-0.008631,-0.067281,-0.160894,-0.239522,-0.332813,-0.424493,-0.491037,-0.587067,-0.639916,-0.764948,-0.825853,-0.910765,-1.002767,-1.057388,-1.096541,-1.132955,-1.140045,-1.115715,-1.135855,-1.158252,-1.162280,-1.151807,-1.146490,-1.128121,-1.138756,-1.155835,-1.165019,-1.167919,-1.136500,-1.156479,-1.158091,-1.179681,-1.181292,-1.172431,-1.156802,-1.158735,-1.153901,-1.170658,-1.197405,-1.177587,-1.166308,-1.170658,-1.165824,-1.155190,-1.183065,-1.187737,-1.191282,-1.180970,-1.165341,-1.193377,-1.156640,-1.167758,-1.186287,-1.175975,-1.180970,-1.188060,-1.193377,-1.205944,-1.200305,-1.205783,-1.207878,-1.191765,-1.197083,-1.194988,-1.194988,-1.199016,-1.186609,-1.190315,-1.189510,-1.179037,-1.173881,-1.173558,-1.171786,-1.156802,-1.178070,-1.175975,-1.175653,-1.175814,-1.166469,-1.161474,-1.165341,-1.164374,-1.169047,-1.155835,-1.145362,-1.175009,-1.139561,-1.141495,-1.146812,-1.130699,-1.114909,-1.127477,-1.108787,-1.097830,-1.103147,-1.079462,-1.104920,-1.092513,-1.104436,-1.082362,-1.078334,-1.100086,-1.103147,-1.092835,-1.099441,-1.101053,-1.084618,-1.104114,-1.102019,-1.106209,-1.097991,-1.102664,-1.090257,-1.100730,-1.100569,-1.086713,-1.100569,-1.071245,-1.079623,-1.067378,-1.057871,-1.070439,-1.075273,-1.068022,-1.055616,-1.037086,-1.045948,-1.071245,-1.031286,-1.081234,-1.054488,-1.060933,-1.067700,-1.075917,-1.040792,-1.050460,-1.041437,-1.029030,-1.065444,-1.024841,-1.036925,-1.058516,-1.039020,-1.026291,-1.040792,-1.019846,-1.049654,-1.032414,-1.025002,-1.056905,-1.010340,-1.037892,-1.032253,-1.005506,-1.032092,-1.044820,-1.018074,-1.046270,-1.035153,-1.036764,-1.040470,-1.010179,-1.050137,-1.014368,-1.022908,-1.039987,-1.014851,-1.024841,-1.026774,-1.005506,-0.992777,-1.028386,-0.990038,-1.011468,-1.017752,-1.000995,-1.003573,-1.007923,-1.023874,-1.007923,-1.015657,-1.003895,-1.027097,-1.004378,-1.011951,-1.024841,-0.995033,-1.014690,-1.031930,-0.994389,-1.020330,-1.017429,-0.999061,-1.024035,-1.012273,-1.014851,-1.002767,-1.002445,-1.009695,-0.999061,-1.007440,-0.988588,-1.007923,-1.005667,-0.994389,-0.992455,-0.988266,-1.007440,-0.988588,-0.996805,-0.989555,-0.982143,-0.986332,-0.990199,-0.958136,-0.983271,-0.987299,-0.967642,-0.980693,-0.970864,-0.974087,-1.002928,-0.981660,-0.997128,-1.000834,-0.977309,-0.993100,-0.971670,-1.000834,-0.972959,-0.972959,-0.983110,-0.982143,-0.967320,-0.964097,-0.985366,-0.965870,-0.973281,-0.965064,-0.962969,-0.958297,-0.950885,-0.967803,-0.960230,-0.961197,-0.953463,-0.949757,-0.935095,-0.942829,-0.945407,-0.912054,-0.928489,-0.904481,-0.913504,-0.923494,-0.890786,-0.887886,-0.892397,-0.853405,-0.849216,-0.891269,-0.823597,-0.839065,-0.831814,-0.839387,-0.797817,-0.787505,-0.765431,-0.757697,-0.754153,-0.738201,-0.724667,-0.707910,-0.708555,-0.654095,-0.659412,-0.678747,-0.653934,-0.631537,-0.678263,-0.643461,-0.646522,-0.667790,-0.629604,-0.641849,-0.649261,-0.652806,-0.653772,-0.661184,-0.647972,-0.668435,-0.645877,-0.657801,-0.654739,-0.633149,-0.655223,-0.643944,-0.647489,-0.647650,-0.642494,-0.635727,-0.616875,-0.615264,-0.623320,-0.628637,-0.585134,-0.628637,-0.569988,-0.605435,-0.604469,-0.620420,-0.586423,-0.640077,-0.621387,-0.612202,-0.659412,-0.616553,-0.630893,-0.623803,-0.657639,-0.640399,-0.642494,-0.662312,-0.648939,-0.630732,-0.644427,-0.669401,-0.641527,-0.685031,-0.664729,-0.661829,-0.693570,-0.675363,-0.657962,-0.675685,-0.664084,-0.661668,-0.699693,-0.683580,-0.678424,-0.709521,-0.713549,-0.720156,-0.717094,-0.701143,-0.737557,-0.704527,-0.687286,-0.735623,-0.696148,-0.740296,-0.736268,-0.695826,-0.716289,-0.714838,-0.686320,-0.713549,-0.691637,-0.674719,-0.706138,-0.670690,-0.699854,-0.682614,-0.674074,-0.674719,-0.668435,-0.683097,-0.707266,-0.695665,-0.708394,-0.723700,-0.712099,-0.725956,-0.738846,-0.748352,-0.774293,-0.796528,-0.793145,-0.812157,-0.815541,-0.806518,-0.867745,-0.837293,-0.844866,-0.911087,-0.879991,-0.900937,-0.899325,-0.913182,-0.916888,-0.930745,-0.934128,-0.956363,-0.950885,-0.940251,-0.959747,-0.944279,-0.935095,-0.937190,-0.946535,-0.947179,-0.943473,-0.913504,-0.916243,-0.914310,-0.924300,-0.909960,-0.899164,-0.932034,-0.929133,-0.925750,-0.918499,-0.934773,-0.937834,-0.956686,-0.959425,-0.938640,-0.967481,-0.939445,-0.957491,-0.952174,-0.957008,-0.954752,-0.967481,-0.958780,-0.956202,-0.981499,-0.945568,-0.959586,-0.936384,-0.951368,-0.933484,-0.940895,-0.941057,-0.929778,-0.933323,-0.934128,-0.952013,-0.916888,-0.935417,-0.921883,-0.965547,-0.972959,-0.961358,-0.964258,-0.990199,-0.968609,-0.962647,-1.001639,-0.962164,-1.010662,-1.012596,-0.991005,-1.016140,-1.017107,-1.028708,-1.020168,-1.021296,-1.041920,-1.032253,-1.000028,-1.026613,-1.014529,-1.010179,-1.015174,-1.010340,-1.002606,-0.999383,-0.999383,-0.982627,-1.025808,-0.991972,-0.996967,-1.012434,-1.008567,-1.013079,-1.019524,-1.016463,-1.031286,-1.033219,-1.013723,-1.041920,-1.014529,-1.038859,-1.034186,-1.020652,-1.038375,-1.031930,-1.019041,-1.043854,-1.029997,-1.030641,-1.042242,-1.035959,-1.026291,-1.034508,-1.049654,-1.041759,-1.039826,-1.058677,-1.044176,-1.047721,-1.056744,-1.055455,-1.047721,-1.035475,-1.059322,-1.055132,-1.057871,-1.062222,-1.044981,-1.055938,-1.060127,-1.041759,-1.063350,-1.046593,-1.036442,-1.073339,-1.030158,-1.026774,-1.044176,-1.038537,-1.021457,-1.034186,-1.030641,-1.038053,-1.041598,-1.042081,-1.035314,-1.020168,-1.045304,-1.040470,-1.042242,-1.030964,-1.055938,-1.028547,-1.034508,-1.039020,-1.017913,-1.042887,-1.034670,-1.020168,-1.026613,-1.024035,-0.987138,-1.015818,-0.991327,-1.000995,-1.025969,-0.972315,-1.011145,-0.996483,-0.994389,-0.988105,-0.988105,-1.007117,-1.004539,-0.995516,-1.016301,-1.023874,-0.982788,-1.016624,-0.997611,-1.013079,-1.009373,-1.022102,-1.012112,-1.016301,-1.019685,-0.997611,-1.020168,-0.989716,-1.020168,-1.008084,-1.007117,-1.005345,-1.003573,-0.975215,-0.994711,-0.985366,-0.978921,-1.005828,-0.955719,-0.981821,-0.966353,-0.961680,-0.970381,-0.952174,-0.963292,-0.958941,-0.978921,-0.959425,-0.964258,-0.957491,-0.954269,-0.954913,-0.952980,-0.961036,-0.965225,-0.948790,-0.968286,-0.971992,-0.951852,-0.977954,-0.959264,-0.951691,-0.968609,-0.943312,-0.956847,-0.965386,-0.921077,-0.967320,-0.948629,-0.967964,-0.980210,-0.957169,-0.961519,-0.969575,-0.929778,-0.941540,-0.943473,-0.932356,-0.919627,-0.933645,-0.901742,-0.926555,-0.895297,-0.870001,-0.883858,-0.871451,-0.854533,-0.842771,-0.837454,-0.820536,-0.826820,-0.824725,-0.844221,-0.813446,-0.808935,-0.828109,-0.810546,-0.825692,-0.824081,-0.798140,-0.811191,-0.838098,-0.790728,-0.820052,-0.819247,-0.817958,-0.840032,-0.809740,-0.849377,-0.833103,-0.834715,-0.834554,-0.849860,-0.832459,-0.832459,-0.850666,-0.840999,-0.844060,-0.855016,-0.819247,-0.844221,-0.837937,-0.811352,-0.835198,-0.829559,-0.807646,-0.825853,-0.823919,-0.810707,-0.806035,-0.820536,-0.809740,-0.786861,-0.815219,-0.812641,-0.809257,-0.807485,-0.837937,-0.814896,-0.819247,-0.806196,-0.830364,-0.806357,-0.832137,-0.830687,-0.847443,-0.828914,-0.825531,-0.845027,-0.839065,-0.871451,-0.845027,-0.869517,-0.869034,-0.862911,-0.855177,-0.891591,-0.859850,-0.852761,-0.886758,-0.862106,-0.882730,-0.867584,-0.896909,-0.884019,-0.855177,-0.891108,-0.901420,-0.882407,-0.872740,-0.896425,-0.855983,-0.889980,-0.872901,-0.859689,-0.865973,-0.875318,-0.855500,-0.864039,-0.865812,-0.861300,-0.874673,-0.848894,-0.865489,-0.882407,-0.854855,-0.870323,-0.873384,-0.858561,-0.892397,-0.873868,-0.877413,-0.930422,-0.862267,-0.901259,-0.925911,-0.902709,-0.910765,-0.910765,-0.896909,-0.916566,-0.919466,-0.948790,-0.948629,-0.939284,-0.941379,-0.939445,-0.962486,-0.966836,-0.953302,-0.980693,-0.966675,-0.951691,-0.961197,-0.969575,-0.946212,-0.961036,-0.982143,-0.961842,-0.975376,-0.982304,-0.987138,-0.966031,-0.975537,-0.991166,-0.984077,-0.983110,-0.981499,-0.997128,-0.973120,-0.991811,-0.993905,-0.985527,-0.987460,-0.990844,-0.970381,-1.017107,-0.997289,-0.984560,-1.020974,-0.988427,-0.995839,-1.003734,-1.016463,-1.008406,-1.027097,-1.008084,-1.014529,-1.031608,-1.013723,-1.016140,-1.034347,-1.023069,-1.032897,-1.037892,-1.028547,-1.032253,-1.032736,-1.049332,-1.043370,-1.039987,-1.055938,-1.050782,-1.041115,-1.057388,-1.037086,-1.046270,-1.065122,-1.039503,-1.061577,-1.050621,-1.033381,-1.061738,-1.028708,-1.047559,-1.046270,-1.049654,-1.035959,-1.045787,-1.034670,-1.041115,-1.058999,-1.028386,-1.071406,-1.056905,-1.067861,-1.070761,-1.077206,-1.069795,-1.077851,-1.067055,-1.076884,-1.097991,-1.086229,-1.091869,-1.080912,-1.081718,-1.092835,-1.080751,-1.090096,-1.094124,-1.068989,-1.089613,-1.098797,-1.079623,-1.090257,-1.087357,-1.079623,-1.084940,-1.098797,-1.092996,-1.078495,-1.086229,-1.084457,-1.100730,-1.092996,-1.094447,-1.071084,-1.093158,-1.084135,-1.080107,-1.056421,-1.084779,-1.077206,-1.070600,-1.104275,-1.069472,-1.090741,-1.076723,-1.073984,-1.085101,-1.079945,-1.081557,-1.085585,-1.084457,-1.084135,-1.092513,-1.075595,-1.091385,-1.078656,-1.074789,-1.079623,-1.086874,-1.087035,-1.057227,-1.062222,-1.056099,-1.063027,-1.035797,-1.048365,-1.064961,-1.042081,-1.072534,-1.062061,-1.036442,-1.062061,-1.058033,-1.055132,-1.074306,-1.057227,-1.082846,-1.087518,-1.083168,-1.115715,-1.111042,-1.122643,-1.128121,-1.142300,-1.143267,-1.136017,-1.147617,-1.148423,-1.140689,-1.134405,-1.139722,-1.129410,-1.128444,-1.117648,-1.119582,-1.100086,-1.096863,-1.064639,-1.033542,-1.048043,-1.022585,-1.017107,-0.997450,-0.973442,-0.966675,-0.958458,-0.920110,-0.906898,-0.932034,-0.911087,-0.897714,-0.863556,-0.897875,-0.858078,-0.839710,-0.835520,-0.822630,-0.760437,-0.742068,-0.761242,-0.683580,-0.662312,-0.608497,-0.556615,-0.518589,-0.471702,-0.377122,-0.341514,-0.269814,-0.170722,-0.164922,-0.039406,0.008287,0.094972,0.147659,0.233861,0.302983,0.378712,0.425760,0.480059,0.511318,0.548376,0.588980,0.626683,0.662936,0.702734,0.739632,0.773146,0.809238,0.838401,0.870465,0.895118,0.913164,0.937655,0.950545,0.956184,0.971169,0.970685,0.979386,0.977775,0.971169,0.964401,0.945711,0.933304,0.913808,0.876266,0.829056,0.801343,0.730286,0.700478,0.655686,0.575606,0.505195,0.419960,0.354060,0.288482,0.194869,0.128647,0.054046,-0.054391,-0.142848,-0.222443,-0.325402,-0.404997,-0.497321,-0.584811,-0.666662,-0.747386,-0.830848,-0.896425,-0.971187,-1.020007,-1.020491,-1.049493,-1.032414,-1.034831,-1.060288,-1.041759,-1.040953,-1.047398,-1.025969,-1.044337,-1.038214,-1.034508,-1.039181,-1.047398,-1.066411,-1.065283,-1.063188,-1.065928,-1.061900,-1.048526,-1.065605,-1.056905,-1.058516,-1.066089,-1.067539,-1.066250,-1.061900,-1.070278,-1.059322,-1.067378,-1.069795,-1.066894,-1.072534,-1.070600,-1.063027,-1.062061,-1.055616,-1.056905,-1.056260,-1.035475,-1.053521,-1.034670,-1.045465,-1.032253,-1.029352,-1.014690,-1.026936,-1.013562,-1.013723,-1.023713,-1.006795,-1.012112,-1.002767,-1.008084,-1.016301,-1.010018,-1.007923,-1.018557,-0.994550,-0.998094,-1.026774,-0.973765,-1.008890,-1.016785,-0.999383,-1.007762,-1.014690,-1.002767,-1.007923,-0.996644,-1.004056,-1.000834,-0.987621,-0.994389,-0.989233,-0.984721,-0.981176,-0.969898,-0.969253,-0.974893,-0.970864,-0.994711,-0.988910,-0.994872,-0.991327,-0.995033,-0.981176,-0.988427,-0.988266,-0.982304,-0.983593,-1.008084,-0.982788,-0.980371,-0.992133,-0.988105,-0.987299,-0.988910,-1.003250,-0.982304,-0.982143,-0.981176,-0.985366,-0.984238,-0.973120,-0.979565,-0.942668,-0.969898,-0.946857,-0.929617,-0.943957,-0.942507,-0.905126,-0.939929,-0.910121,-0.911571,-0.923011,-0.893203,-0.932195,-0.903676,-0.939445,-0.957975,-0.936545,-0.951530,-0.976182,-0.957975,-0.982143,-0.979887,-0.963131,-0.995678,-0.982788,-0.983754,-0.987299,-0.973120,-0.959102,-0.985366,-0.978276,-0.964258,-0.987621,-0.982627,-0.983754,-0.974731,-0.970381,-0.957652,-0.972476,-0.944118,-0.951852,-0.951852,-0.933161,-0.950402,-0.929294,-0.957491,-0.922527,-0.939445,-0.934773,-0.939929,-0.922205,-0.943957,-0.923816,-0.924622,-0.942184,-0.919305,-0.946051,-0.941701,-0.942990,-0.946535,-0.942346,-0.943312,-0.949918,-0.949435,-0.937351,-0.958458,-0.923172,-0.936223,-0.933000,-0.919627,-0.914954,-0.934128,-0.884985,-0.901098,-0.901903,-0.877735,-0.923816,-0.855661,-0.874996,-0.879346,-0.878540,-0.886597,-0.913021,-0.884985,-0.897714,-0.902387,-0.898198,-0.907543,-0.913988,-0.923977,-0.922527,-0.911249,-0.899809,-0.902709,-0.896425,-0.897231,-0.908026,-0.902065,-0.907704,-0.894653,-0.881602,-0.908671,-0.879668,-0.891914,-0.895136,-0.868390,-0.863878,-0.884180,-0.848894,-0.839387,-0.841482,-0.826497,-0.837132,-0.811996,-0.843093,-0.825208,-0.834070,-0.828753,-0.848088,-0.857272,-0.853566,-0.881924,-0.886919,-0.895297,-0.890464,-0.923816,-0.918821,-0.916405,-0.900453,-0.918983,-0.892236,-0.865328,-0.926878,-0.873223,-0.896586,-0.880796,-0.862750,-0.880474,-0.890141,-0.874835,-0.894975,-0.891108,-0.879991,-0.913665,-0.890464,-0.914149,-0.919144,-0.942990,-0.949113,-0.956202,-0.961842,-0.971348,-0.978437,-0.985043,-0.988910,-0.976182,-0.979726,-0.989716,-0.970059,-0.976504,-0.977309,-0.971670,-0.976504,-0.985527,-0.981338,-0.979404,-0.965708,-0.968286,-0.981499,-0.957491,-0.975859,-0.986010,-0.977632,-0.991811,-0.984399,-0.979726,-0.993905,-0.972476,-0.985688,-0.989233,-0.978115,-0.999545,-1.008567,-0.986332,-1.004539,-1.008245,-0.997933,-0.997611,-1.022424,-1.004217,-1.006634,-1.004378,-1.004539,-0.987782,-0.993744,-1.000028,-1.011468,-0.990844,-1.015657,-0.995839,-0.986816,-1.028063,-1.005184,-1.027580,-1.022908,-1.013079,-1.024196,-1.027097,-1.002445,-1.026774,-1.029836,-1.012596,-1.016463,-1.003734,-1.021619,-1.004862,-1.024358,-1.037086,-1.034186,-1.025163,-1.044337,-1.055777,-1.029191,-1.051749,-1.051265,-1.041759,-1.049815,-1.056744,-1.051749,-1.055132,-1.049171,-1.047237,-1.052877,-1.042887,-1.050782,-1.044981,-1.041598,-1.055293,-1.052393,-1.047076,-1.062866,-1.056099,-1.051265,-1.078334,-1.055938,-1.074306,-1.081718,-1.073823,-1.059322,-1.075434,-1.074306,-1.059805,-1.058838,-1.041115,-1.074789,-1.044498,-1.048687,-1.061094,-1.047559,-1.050782,-1.064477,-1.049493,-1.070922,-1.066572,-1.063833,-1.073017,-1.058516,-1.058194,-1.073500,-1.057227,-1.066250,-1.085424,-1.073500,-1.075273,-1.071728,-1.083651,-1.090902,-1.085907,-1.090580,-1.089774,-1.091546,-1.089291,-1.086874,-1.091224,-1.091063,-1.094608,-1.092352,-1.108303,-1.099603,-1.085585,-1.097347,-1.086229,-1.077529,-1.092835,-1.093641,-1.081557,-1.084618,-1.082040,-1.087840,-1.088324,-1.090257,-1.105886,-1.082040,-1.103469,-1.096863,-1.090257,-1.112654,-1.113459,-1.112976,-1.122804,-1.119421,-1.117165,-1.128605,-1.107014,-1.122482,-1.132311,-1.130216,-1.109592,-1.133761,-1.123610,-1.122321,-1.127960,-1.109592,-1.126994,-1.105886,-1.111203,-1.106531,-1.116198,-1.095736,-1.112492,-1.074145,-1.086229,-1.110398,-1.075434,-1.112654,-1.093319,-1.113781,-1.112976,-1.106047,-1.114265,-1.115715,-1.117165,-1.121676,-1.129572,-1.112009,-1.108464,-1.121193,-1.118615,-1.117648,-1.130055,-1.124738,-1.138756,-1.148584,-1.153418,-1.158735,-1.145201,-1.160024,-1.169369,-1.151807,-1.153579,-1.161474,-1.150195,-1.152129,-1.156318,-1.151001,-1.154707,-1.151646,-1.147456,-1.155996,-1.142945,-1.153418,-1.138756,-1.138595,-1.145039,-1.151484,-1.120065,-1.133922,-1.129894,-1.098314,-1.121354,-1.115070,-1.097669,-1.125060,-1.114265,-1.090096,-1.127799,-1.094769,-1.110720,-1.120710,-1.103631,-1.130055,-1.102019,-1.119904,-1.121193,-1.108303,-1.098475,-1.097669,-1.102503,-1.088807,-1.093319,-1.072856,-1.088163,-1.050299,-1.050460,-1.036281,-1.052877,-1.026936,-1.029030,-1.000672,-0.970542,-0.998256,-0.964581,-0.968448,-0.957975,-0.959747,-0.935901,-0.949274,-0.922205,-0.934934,-0.901098,-0.941379,-0.949113,-0.907059,-0.940090,-0.944279,-0.940734,-0.954430,-0.943151,-0.947179,-0.959102,-0.981660,-0.998094,-0.994550,-0.963775,-0.992777,-0.965225,-0.994550,-0.989716,-0.977309,-0.980371,-0.993261,-0.962325,-0.941379,-0.968609,-0.929939,-0.948468,-0.961519,-0.939768,-0.961519,-0.947179,-0.918338,-0.942507,-0.957813,-0.951046,-0.968125,-0.922688,-0.934773,-0.938640,-0.923494,-0.937834,-0.947824,-0.933161,-0.939929,-0.948629,-0.942184,-0.962003,-0.940734,-0.945246,-0.946212,-0.964258,-0.955074,-0.959102,-0.969737,-0.957975,-0.973765,-0.935256,-0.959264,-0.960391,-0.956363,-0.975859,-0.926072,-0.939284,-0.936545,-0.925105,-0.939284,-0.941540,-0.886113,-0.933967,-0.911410,-0.901903,-0.897875,-0.888530,-0.932678,-0.904643,-0.922366,-0.948790,-0.938479,-0.923977,-0.951368,-0.969898,-0.947824,-0.977793,-0.962486,-1.004700,-0.994066,-0.973765,-0.982949,-0.996967,-0.974409,-0.983110,-1.011145,-0.987621,-1.006473,-0.986655,-0.980854,-0.975376,-1.000995,-0.987138,-1.018235,-0.955235,-0.965870,-0.967964,-0.947179,-0.980049,-0.946857,-0.942184,-0.937673,-0.936545,-0.914954,-0.936384,-0.916727,-0.918660,-0.937995,-0.923011,-0.931550,-0.927039,-0.956847,-0.923494,-0.965547,-0.949113,-0.973926,-0.953624,-0.970864,-1.000028,-0.955880,-0.991649,-0.989233,-0.982304,-0.983593,-1.007117,-0.989394,-1.020652,-1.010340,-0.999706,-1.033703,-0.995194,-1.033219,-1.005667,-1.019202,-1.034670,-1.025647,-1.015818,-1.030641,-1.012112,-1.021780,-1.026130,-0.998900,-1.011951,-0.998256,-0.997289,-0.998094,-0.982627,-0.981338,-1.003573,-0.972637,-0.971992,-1.022424,-0.986655,-0.985043,-1.005506,-1.006473,-1.013401,-1.036925,-1.024196,-1.041920,-1.034670,-1.055293,-1.072050,-1.038698,-1.068022,-1.075917,-1.072534,-1.097830,-1.094447,-1.094447,-1.106853,-1.111042,-1.089452,-1.099119,-1.102986,-1.087840,-1.102825,-1.099280,-1.096863,-1.101375,-1.109109,-1.111687,-1.117487,-1.112170,-1.113943,-1.118937,-1.103953,-1.119099,-1.110720,-1.113459,-1.119743,-1.126510,-1.123932,-1.123610,-1.105886,-1.124416,-1.137628,-1.110720,-1.151807,-1.125705,-1.132472,-1.124577,-1.126349,-1.118776,-1.128605,-1.134405,-1.125382,-1.128605,-1.121838,-1.131344,-1.132311,-1.128766,-1.134889,-1.144073,-1.151001,-1.163246,-1.155351,-1.152935,-1.173720,-1.154546,-1.172914,-1.184515,-1.167597,-1.181937,-1.188060,-1.179359,-1.191927,-1.179037,-1.170497,-1.184837,-1.166630,-1.173236,-1.176136,-1.177103,-1.178553,-1.188060,-1.187415,-1.160185,-1.180165,-1.184515,-1.184193,-1.185965,-1.184515,-1.170014,-1.192893,-1.184676,-1.194666,-1.191282,-1.185320,-1.186287,-1.178392,-1.193377,-1.192088,-1.172592,-1.198049,-1.183709,-1.196277,-1.173397,-1.185320,-1.196921,-1.182904,-1.175814,-1.198533,-1.175975,-1.179037,-1.193538,-1.165986,-1.182259,-1.185804,-1.181453,-1.181453,-1.191282,-1.172592,-1.177103,-1.186932,-1.177909,-1.192571,-1.182420,-1.171464,-1.199016,-1.185482,-1.181615,-1.198694,-1.175653,-1.194666,-1.208683,-1.183870,-1.218190,-1.189671,-1.199822,-1.198533,-1.180648,-1.198210,-1.196277,-1.179842,-1.210939,-1.202561,-1.171464,-1.200466,-1.177264,-1.175170,-1.193860,-1.189993,-1.191121,-1.195955,-1.185643,-1.162602,-1.200627,-1.186609,-1.185482,-1.198694,-1.189026,-1.184515,-1.195632,-1.188704,-1.192249,-1.187898,-1.197566,-1.206589,-1.183065,-1.208845,-1.176298,-1.206750,-1.205300,-1.200466,-1.198855,-1.204333,-1.190315,-1.204172,-1.194182,-1.187254,-1.203044,-1.195310,-1.197727,-1.177103,-1.195794,-1.184837,-1.178553,-1.189187,-1.194021,-1.192893,-1.204978,-1.197566,-1.199983,-1.204172,-1.185159,-1.212712,-1.175975,-1.214001,-1.208039,-1.190638,-1.208039,-1.186448,-1.201433,-1.196921,-1.185804,-1.204978,-1.193699,-1.194182,-1.193216,-1.206911,-1.196116,-1.185804,-1.198049,-1.207717,-1.191604,-1.209328,-1.200949,-1.190960,-1.196760,-1.200788,-1.214806,-1.191604,-1.218190,-1.195632,-1.206105,-1.218190,-1.196438,-1.207233,-1.214323,-1.212389,-1.194505,-1.214967,-1.206428,-1.216740,-1.199499,-1.201755,-1.215128,-1.193860,-1.217545,-1.198210,-1.204978,-1.203689,-1.186609,-1.194827,-1.216740,-1.196116,-1.191282,-1.209811,-1.190476,-1.180487,-1.169369,-1.159702,-1.131988,-1.139078,-1.107659,-1.061900,-1.092513,-1.005989,-0.991166,-0.964097,-0.947340,-0.881924,-0.869195,-0.824725,-0.799429,-0.729662,-0.683419,-0.649422,-0.577883,-0.549847,-0.465096,-0.428360,-0.376156,-0.290438,-0.260630,-0.208264,-0.124802,-0.072920,-0.026355,0.033422,0.074670,0.163933,0.209370,0.266408,0.322963,0.357282,0.401430,0.440100,0.461530,0.486504,0.519374,0.536936,0.558688,0.584629,0.603159,0.617982,0.634739,0.644729,0.653591,0.662131,0.667448,0.666481,0.657458,0.652624,0.646018,0.616532,0.594136,0.569806,0.508095,0.472164,0.465075,0.362922,0.342137,0.250134,0.201153,0.097227,0.032133,-0.039245,-0.134631,-0.239200,-0.310900,-0.414664,-0.543886,-0.593512,-0.694376,-0.793789,-0.869840,-0.964581,-1.049976,-1.098797,-1.163730,-1.161957,-1.132633,-1.173075,-1.158252,-1.186609,-1.185482,-1.166630,-1.168402,-1.173558,-1.197566,-1.197727,-1.176136,-1.173881,-1.180165,-1.180809,-1.203205,-1.192893,-1.178714,-1.175331,-1.186448,-1.191443,-1.201272,-1.210778,-1.215773,-1.195471,-1.200949,-1.189510,-1.188382,-1.180003,-1.180809,-1.189349,-1.185965,-1.186126,-1.186448,-1.193699,-1.200144,-1.191282,-1.170658,-1.194343,-1.184515,-1.193699,-1.200144,-1.185643,-1.192893,-1.190315,-1.187576,-1.212712,-1.204978,-1.208200,-1.228663,-1.215934,-1.230596,-1.193538,-1.191121,-1.205622,-1.206105,-1.213034,-1.216901,-1.223346,-1.189187,-1.188221,-1.194827,-1.205139,-1.215290,-1.211906,-1.207556,-1.208361,-1.208683,-1.220445,-1.203527,-1.185320,-1.206267,-1.209006,-1.206750,-1.199983,-1.191121,-1.207878,-1.201594,-1.189349,-1.204655,-1.213839,-1.185643,-1.199177,-1.195310,-1.188543,-1.176942,-1.196921,-1.193054,-1.187898,-1.191604,-1.203850,-1.205944,-1.193377,-1.195471,-1.181937,-1.191282,-1.190960,-1.196277,-1.191443,-1.194505,-1.194182,-1.199338,-1.203044,-1.183870,-1.192249,-1.186126,-1.188060,-1.179198,-1.201272,-1.173558,-1.184998,-1.180326,-1.180165,-1.199822,-1.145201,-1.184837,-1.175170,-1.167436,-1.166791,-1.181292,-1.155029,-1.164213,-1.165502,-1.139078,-1.172431,-1.148262,-1.144395,-1.156802,-1.144234,-1.148745,-1.162602,-1.148101,-1.143428,-1.145684,-1.142300,-1.165019,-1.117487,-1.146167,-1.123127,-1.110237,-1.130699,-1.103308,-1.108948,-1.120549,-1.081718,-1.086551,-1.099925,-1.026613,-1.092996,-1.092030,-1.082846,-1.059805,-1.089129,-1.072534,-1.080590,-1.077367,-1.066894,-1.108787,-1.059966,-1.104920,-1.094447,-1.074628,-1.098797,-1.094608,-1.070117,-1.085101,-1.086713,-1.063188,-1.097347,-1.056099,-1.079784,-1.072211,-1.061255,-1.088002,-1.077851,-1.085746,-1.100408,-1.071406,-1.086713,-1.102825,-1.054810,-1.090257,-1.069795,-1.045626,-1.062866,-1.071245,-1.067861,-1.051588,-1.052232,-1.059644,-1.041920,-1.009373,-1.020491,-1.025324,-1.008890,-1.003734,-1.011951,-1.014529,-0.994227,-0.999061,-0.993905,-1.014207,-0.997933,-1.014690,-1.027580,-1.019363,-1.020007,-1.022746,-1.006151,-1.014851,-1.020007,-1.050460,-1.037570,-0.999222,-1.038375,-1.020974,-1.001317,-1.019524,-1.011629,-0.990844,-0.980371,-0.980693,-0.941540,-0.961842,-0.953141,-0.921883,-0.954752,-0.916243,-0.907382,-0.931872,-0.921399,-0.919788,-0.952496,-0.924461,-0.950563,-0.986816,-0.980693,-1.013401,-1.008084,-1.009856,-1.046109,-1.033381,-1.051749,-1.065444,-1.047721,-1.059644,-1.074306,-1.052715,-1.089774,-1.061416,-1.077045,-1.071728,-1.071889,-1.078979,-1.068506,-1.064477,-1.051265,-1.068828,-1.037086,-1.043692,-1.029030,-1.032575,-1.017590,-1.016624,-0.997611,-1.002928,-0.964581,-0.951691,-0.959102,-0.934128,-0.949596,-0.917210,-0.946051,-0.942668,-0.900776,-0.910282,-0.912215,-0.891591,-0.912054,-0.901903,-0.878057,-0.909798,-0.863234,-0.876446,-0.879991,-0.880635,-0.857917,-0.874673,-0.879829,-0.871451,-0.870806,-0.889980,-0.887241,-0.873546,-0.904804,-0.909798,-0.879829,-0.870323,-0.896586,-0.902548,-0.892397,-0.930906,-0.896264,-0.924300,-0.922688,-0.917371,-0.924783,-0.931067,-0.915116,-0.956041,-0.941218,-0.923977,-0.951852,-0.964420,-0.963936,-0.951046,-0.985527,-0.990038,-0.982949,-0.975376,-0.988266,-0.977954,-0.968931,-0.997289,-0.952657,-0.980532,-0.961197,-0.964742,-0.979082,-0.956524,-0.916727,-0.964420,-0.940895,-0.918499,-0.952013,-0.937834,-0.949596,-0.900614,-0.932195,-0.946051,-0.916566,-0.910765,-0.934773,-0.884019,-0.909476,-0.926716,-0.877413,-0.943473,-0.905609,-0.898198,-0.923011,-0.928811,-0.905932,-0.924622,-0.925589,-0.907220,-0.961358,-0.918660,-0.926394,-0.940734,-0.935739,-0.936384,-0.955558,-0.943151,-0.966836,-0.950241,-0.956847,-0.990038,-0.941701,-0.982465,-0.960714,-0.960069,-0.991649,-0.983754,-0.939445,-0.982949,-0.954269,-0.962486,-0.989555,-0.967964,-0.981015,-0.983271,-0.985366,-0.974409,-0.967642,-0.976343,-0.990683,-0.978598,-0.994066,-1.007762,-0.985366,-0.986010,-1.013079,-0.980371,-0.994389,-1.001961,-0.985043,-1.003573,-1.002767,-0.983593,-1.003895,-0.995839,-0.984721,-0.993744,-0.976504,-0.995194,-0.981176,-0.966836,-0.981821,-0.962003,-0.984238,-0.997611,-0.990522,-0.982465,-1.001156,-0.983593,-1.008084,-1.014368,-1.012918,-1.025647,-1.024841,-1.013562,-1.032414,-1.040470,-1.030319,-1.064477,-1.050943,-1.061416,-1.072534,-1.072050,-1.087035,-1.079140,-1.090902,-1.099925,-1.096702,-1.095897,-1.120871,-1.095252,-1.105081,-1.106853,-1.094769,-1.109914,-1.111848,-1.102986,-1.102664,-1.117810,-1.093158,-1.112331,-1.105886,-1.117004,-1.101053,-1.121676,-1.110881,-1.115070,-1.114587,-1.102664,-1.132955,-1.116521,-1.121838,-1.118937,-1.121999,-1.130055,-1.118937,-1.114748,-1.134405,-1.121032,-1.125060,-1.149390,-1.121032,-1.128605,-1.151807,-1.139884,-1.135211,-1.152612,-1.157446,-1.132633,-1.150518,-1.150357,-1.146167,-1.154224,-1.148745,-1.147779,-1.143106,-1.146812,-1.153740,-1.162441,-1.161474,-1.157768,-1.154707,-1.166469,-1.163408,-1.142139,-1.177909,-1.151323,-1.158413,-1.165502,-1.160668,-1.159541,-1.162441,-1.153257,-1.154385,-1.153096,-1.158896,-1.166308,-1.169691,-1.174847,-1.171303,-1.167275,-1.171947,-1.173075,-1.163246,-1.165663,-1.180487,-1.169369,-1.174203,-1.188543,-1.171786,-1.166308,-1.190960,-1.170175,-1.173075,-1.178392,-1.169047,-1.182259,-1.165180,-1.192088,-1.175009,-1.166952,-1.178876,-1.176298,-1.175009,-1.179037,-1.167436,-1.172753,-1.189187,-1.150679,-1.168886,-1.151807,-1.163891,-1.148745,-1.173236,-1.146006,-1.155190,-1.157768,-1.150357,-1.176781,-1.162763,-1.178553,-1.178392,-1.166952,-1.184515,-1.189832,-1.169047,-1.190476,-1.190315,-1.164697,-1.202238,-1.185643,-1.195149,-1.183548,-1.186932,-1.201916,-1.179359,-1.179198,-1.208200,-1.192088,-1.186448,-1.204816,-1.171786,-1.190960,-1.178876,-1.193538,-1.183709,-1.199338,-1.184515,-1.192249,-1.171786,-1.179037,-1.199338,-1.163730,-1.188060,-1.186126,-1.173558,-1.177103,-1.183709,-1.160346,-1.164697,-1.171464,-1.161152,-1.174042,-1.141334,-1.155029,-1.152773,-1.131344,-1.138111,-1.114426,-1.109592,-1.147295,-1.086551,-1.097508,-1.106853,-1.059322,-1.067055,-1.051749,-1.055455,-1.033058,-1.031930,-1.035153,-1.031930,-1.034347,-1.024358,-1.028708,-1.021135,-1.043209,-1.049815,-1.026452,-1.032414,-1.048043,-1.019685,-1.050621,-1.066572,-1.048204,-1.069472,-1.050943,-1.056905,-1.079462,-1.047721,-1.060288,-1.052877,-1.034831,-1.062705,-1.065928,-1.052877,-1.075756,-1.038698,-1.055293,-1.048687,-1.040309,-1.055616,-1.044659,-1.044981,-1.026936,-1.017752,-1.015979,-1.027902,-1.009373,-0.999061,-1.024519,-0.994227,-1.022102,-1.029997,-1.008729,-1.022424,-1.040631,-1.002928,-1.029191,-1.037892,-1.023391,-1.048848,-1.030158,-1.042081,-1.041276,-1.035153,-1.045143,-1.049171,-1.039342,-1.054810,-1.034992,-1.040309,-1.060127,-1.027097,-1.057388,-1.054971,-1.054649,-1.054327,-1.072856,-1.054810,-1.041115,-1.054810,-1.055293,-1.080107,-1.066250,-1.087196,-1.071406,-1.073823,-1.083007,-1.088968,-1.084940,-1.099119,-1.136017,-1.105725,-1.130216,-1.101214,-1.112976,-1.129733,-1.126994,-1.126994,-1.150518,-1.131505,-1.126349,-1.154868,-1.137467,-1.148262,-1.137144,-1.161957,-1.140045,-1.160346,-1.138756,-1.160024,-1.154224,-1.134083,-1.179198,-1.142945,-1.147940,-1.164697,-1.143106,-1.157124,-1.166469,-1.143267,-1.168402,-1.161474,-1.162602,-1.176620,-1.151323,-1.155674,-1.171786,-1.151807,-1.166308,-1.171625,-1.176298,-1.162441,-1.160507,-1.157285,-1.171625,-1.165180,-1.167113,-1.161152,-1.158735,-1.169208,-1.169208,-1.166791,-1.169369,-1.170175,-1.184837,-1.186448,-1.164213,-1.175653,-1.174203,-1.169691,-1.167113,-1.182420,-1.165663,-1.177425,-1.185965,-1.179037,-1.190799,-1.183387,-1.189510,-1.179681,-1.186932,-1.186448,-1.176781,-1.177103,-1.192732,-1.191765,-1.177909,-1.189510,-1.179520,-1.179681,-1.184998,-1.193699,-1.185320,-1.181453,-1.184515,-1.187576,-1.191765,-1.179359,-1.203044,-1.193538,-1.185965,-1.199016,-1.184676,-1.194343,-1.201594,-1.195794,-1.187093,-1.203850,-1.167758,-1.182420,-1.198855,-1.188060,-1.196438,-1.188704,-1.190315,-1.200144,-1.196921,-1.195794,-1.197244,-1.183387,-1.205300,-1.206105,-1.204494,-1.202561,-1.188221,-1.204333,-1.200305,-1.208683,-1.194827,-1.212873,-1.183870,-1.187898,-1.221734,-1.189832,-1.221251,-1.200949,-1.211906,-1.202722,-1.202077,-1.197727,-1.213517,-1.210939,-1.200627,-1.207394,-1.202561,-1.219640,-1.193377,-1.201916,-1.197727,-1.204978,-1.202883,-1.219801,-1.199983,-1.194505,-1.223990,-1.190960,-1.207072,-1.205461,-1.195794,-1.208683,-1.225440,-1.209811,-1.216095,-1.198210,-1.202722,-1.228663,-1.196116,-1.218029,-1.213195,-1.196599,-1.204011,-1.220607,-1.210617,-1.210778,-1.196599,-1.191927,-1.226568,-1.202400,-1.221251,-1.202400,-1.195310,-1.192249,-1.220929,-1.214967,-1.195632,-1.205944,-1.210939,-1.215128,-1.196116,-1.207878,-1.210939,-1.200788,-1.205783,-1.209811,-1.184676,-1.210939,-1.214967,-1.192249,-1.211584,-1.203044,-1.191927,-1.211261,-1.182259,-1.198210,-1.204333,-1.192249,-1.207072,-1.207394,-1.191121,-1.204172,-1.208683,-1.198694,-1.212550,-1.192571,-1.215934,-1.215128,-1.202883,-1.209811,-1.212712,-1.202722,-1.213034,-1.220768,-1.207717,-1.214484,-1.211261,-1.228018,-1.206911,-1.203205,-1.214967,-1.237525,-1.200305,-1.212389,-1.220768,-1.204011,-1.224151,-1.192088,-1.209811,-1.214323,-1.205944,-1.202238,-1.208522,-1.195471,-1.194182,-1.214967,-1.196760,-1.182581,-1.172914,-1.184676,-1.160346,-1.144717,-1.131505,-1.100730,-1.104920,-1.063350,-1.048043,-0.989233,-0.984560,-0.929456,-0.899970,-0.876285,-0.843254,-0.784605,-0.752058,-0.712099,-0.631054,-0.641688,-0.541469,-0.511178,-0.431099,-0.378573,-0.318957,-0.262724,-0.191507,-0.130602,-0.055035,-0.009115,0.008931,0.132514,0.157810,0.225966,0.278654,0.327313,0.352449,0.387413,0.410776,0.433333,0.462819,0.485376,0.503906,0.523885,0.546282,0.558527,0.569645,0.584952,0.592363,0.600581,0.608637,0.602514,0.607509,0.606220,0.590752,0.571417,0.566583,0.532747,0.479254,0.473614,0.410292,0.329247,0.284132,0.206147,0.160227,0.090460,0.001197,-0.038762,-0.127541,-0.220349,-0.310095,-0.364877,-0.473314,-0.559354,-0.657478,-0.713549,-0.807807,-0.923011,-0.972959,-1.042887,-1.121999,-1.167919,-1.186932,-1.189510,-1.194021,-1.191121,-1.176298,-1.185159,-1.182581,-1.166630,-1.184193,-1.171625,-1.175814,-1.186126,-1.183709,-1.196760,-1.218190,-1.205622,-1.213678,-1.217706,-1.210939,-1.219318,-1.218834,-1.213839,-1.223990,-1.229952,-1.212873,-1.226890,-1.216740,-1.203205,-1.204816,-1.197244,-1.191121,-1.196599,-1.199661,-1.190799,-1.201594,-1.199983,-1.227213,-1.219318,-1.199016,-1.207233,-1.188221,-1.203850,-1.212389,-1.206105,-1.224151,-1.218351,-1.189026,-1.202238,-1.210295,-1.214162,-1.222057,-1.187737,-1.213356,-1.210456,-1.217706,-1.206750,-1.202400,-1.197083,-1.218995,-1.216901,-1.189510,-1.219479,-1.231080,-1.202077,-1.209489,-1.221412,-1.189993,-1.208039,-1.207878,-1.185643,-1.209811,-1.199661,-1.202722,-1.184998,-1.203689,-1.199822,-1.195471,-1.181937,-1.204978,-1.183226,-1.165663,-1.186771,-1.171947,-1.169530,-1.183870,-1.189510,-1.164535,-1.179842,-1.167113,-1.155513,-1.176298,-1.172914,-1.178231,-1.150679,-1.163569,-1.150840,-1.159863,-1.158574,-1.142300,-1.136178,-1.147295,-1.142784,-1.135372,-1.158574,-1.121354,-1.138595,-1.157607,-1.135372,-1.151001,-1.162602,-1.142623,-1.157607,-1.170175,-1.152773,-1.157285,-1.151001,-1.170336,-1.158413,-1.149390,-1.175492,-1.161313,-1.150840,-1.153418,-1.174847,-1.168564,-1.153740,-1.169691,-1.151323,-1.162924,-1.152129,-1.171947,-1.168564,-1.152451,-1.159863,-1.155835,-1.125382,-1.144395,-1.128444,-1.117487,-1.112331,-1.111042,-1.113298,-1.092835,-1.064800,-1.081718,-1.063833,-1.034347,-1.058677,-1.044176,-1.037248,-1.044176,-0.995678,-1.029836,-1.025002,-1.016785,-1.006634,-1.035314,-1.005989,-1.000189,-1.017752,-1.003412,-1.026130,-1.025324,-1.020652,-1.006151,-1.001156,-0.983271,-1.008890,-0.977471,-0.992938,-0.996322,-0.984721,-0.990522,-0.966353,-1.006473,-0.974409,-0.971831,-0.986655,-0.995355,-0.976665,-0.993583,-1.001800,-0.974087,-0.996967,-0.989233,-0.999706,-0.994227,-1.007923,-1.007762,-1.023391,-1.012596,-0.968931,-1.044659,-0.996644,-1.028869,-1.042887,-1.020652,-1.026452,-1.022746,-1.018879,-1.036281,-0.996000,-0.989233,-1.020330,-0.991005,-1.026130,-1.000350,-0.973442,-0.981338,-0.979887,-0.984882,-0.980854,-0.975215,-0.979565,-0.990199,-0.972959,-0.991972,-0.987460,-0.997289,-0.988749,-1.010984,-1.024196,-1.022263,-1.008084,-1.031769,-1.067378,-1.031286,-1.038214,-1.052715,-1.044820,-1.054004,-1.054971,-1.037248,-1.050782,-1.052715,-1.053843,-1.063350,-1.033703,-1.036120,-1.038053,-1.019846,-1.042726,-1.024841,-1.030480,-1.030158,-1.016785,-1.020652,-1.021941,-1.005506,-1.018074,-1.025808,-1.002767,-1.023230,-1.013401,-0.999706,-0.993261,-1.008084,-0.987782,-1.015012,-1.009051,-1.002123,-1.023391,-0.997933,-1.002445,-0.995033,-0.986977,-0.980693,-0.985366,-0.975537,-0.975698,-0.976826,-0.956202,-0.964903,-0.959102,-0.948307,-0.951852,-0.943312,-0.919949,-0.899003,-0.929939,-0.924300,-0.958136,-0.916727,-0.946051,-0.923494,-0.905932,-0.908509,-0.894814,-0.884019,-0.915277,-0.885308,-0.898036,-0.912699,-0.865167,-0.907220,-0.881118,-0.916243,-0.918499,-0.927683,-0.936706,-0.939606,-0.920272,-0.936545,-0.940090,-0.937351,-0.985527,-0.923816,-0.927683,-0.940895,-0.920594,-0.929294,-0.936062,-0.900453,-0.903676,-0.928650,-0.892558,-0.942829,-0.918499,-0.899164,-0.923011,-0.913827,-0.899809,-0.934128,-0.910765,-0.890464,-0.942507,-0.919305,-0.920272,-0.918016,-0.933645,-0.908348,-0.901903,-0.898681,-0.912538,-0.867745,-0.864523,-0.900776,-0.813446,-0.861139,-0.838259,-0.848732,-0.840837,-0.836648,-0.819408,-0.836487,-0.850988,-0.815702,-0.854694,-0.828914,-0.849055,-0.837293,-0.857272,-0.857917,-0.875479,-0.883535,-0.927522,-0.919627,-0.916405,-0.970059,-0.921399,-0.942668,-0.953302,-0.962164,-0.973120,-0.978760,-0.957008,-0.974570,-0.972476,-0.984560,-0.981338,-0.991488,-0.993905,-0.996644,-0.992133,-1.012273,-1.000189,-0.991327,-1.011629,-1.012112,-1.006151,-1.019363,-1.015818,-1.029836,-1.042565,-1.013562,-1.020652,-1.031125,-1.020330,-1.017913,-1.048687,-1.027902,-1.038214,-1.055455,-1.034508,-1.056260,-1.054810,-1.071567,-1.073178,-1.053682,-1.059644,-1.070922,-1.038214,-1.056099,-1.066250,-1.024519,-1.044015,-1.007117,-1.031447,-1.033219,-0.996483,-1.009695,-1.010340,-0.985527,-0.990522,-1.010179,-0.984882,-0.976020,-0.972476,-0.991327,-0.945407,-0.980049,-0.965870,-0.962969,-0.959264,-0.919144,-0.952013,-0.927522,-0.939284,-0.916243,-0.929456,-0.920594,-0.933484,-0.916243,-0.946051,-0.906415,-0.894169,-0.937673,-0.877251,-0.923172,-0.914632,-0.904159,-0.902387,-0.894653,-0.899648,-0.903192,-0.881280,-0.851794,-0.871773,-0.842932,-0.874996,-0.839871,-0.866939,-0.844221,-0.826820,-0.846155,-0.834715,-0.818925,-0.835843,-0.886919,-0.806840,-0.852761,-0.855661,-0.844543,-0.845027,-0.861784,-0.866456,-0.865006,-0.853405,-0.872418,-0.897070,-0.849860,-0.890947,-0.861139,-0.865812,-0.894814,-0.894008,-0.875479,-0.894492,-0.872579,-0.878863,-0.902226,-0.879991,-0.889658,-0.893364,-0.896264,-0.896909,-0.888530,-0.888369,-0.887241,-0.900937,-0.894169,-0.889175,-0.884502,-0.894814,-0.871934,-0.882730,-0.879346,-0.886758,-0.868712,-0.874835,-0.871290,-0.861461,-0.897553,-0.862106,-0.851633,-0.871290,-0.822630,-0.840354,-0.839871,-0.823919,-0.806840,-0.804746,-0.807807,-0.806840,-0.793145,-0.811835,-0.806679,-0.811835,-0.813285,-0.851794,-0.847282,-0.829559,-0.872901,-0.854533,-0.854533,-0.857433,-0.845671,-0.866134,-0.852277,-0.845671,-0.835681,-0.841160,-0.827142,-0.826981,-0.794273,-0.834392,-0.798623,-0.785089,-0.814896,-0.777838,-0.777032,-0.819730,-0.775099,-0.795078,-0.792339,-0.773971,-0.801523,-0.800718,-0.786216,-0.799267,-0.785572,-0.804101,-0.794111,-0.806196,-0.803296,-0.789278,-0.804907,-0.811029,-0.789600,-0.796045,-0.792178,-0.762370,-0.776066,-0.787183,-0.799106,-0.781060,-0.789600,-0.751575,-0.778805,-0.747386,-0.704688,-0.730951,-0.701143,-0.704204,-0.687931,-0.689542,-0.669724,-0.646844,-0.630409,-0.641366,-0.621870,-0.595607,-0.630732,-0.593029,-0.586423,-0.571277,-0.570471,-0.561610,-0.612847,-0.602535,-0.600924,-0.613008,-0.619453,-0.631215,-0.638788,-0.662473,-0.665857,-0.700337,-0.701949,-0.715966,-0.698243,-0.728212,-0.734173,-0.746258,-0.765431,-0.738846,-0.744002,-0.766237,-0.774293,-0.739490,-0.761726,-0.754797,-0.745935,-0.778321,-0.743357,-0.767687,-0.734012,-0.736751,-0.720639,-0.722895,-0.707105,-0.692281,-0.684869,-0.670046,-0.655061,-0.626381,-0.634115,-0.621548,-0.611558,-0.605596,-0.612202,-0.600602,-0.610269,-0.601729,-0.590773,-0.630409,-0.615264,-0.647005,-0.642977,-0.657639,-0.674074,-0.668113,-0.681969,-0.709521,-0.689703,-0.685675,-0.741585,-0.692764,-0.723378,-0.731434,-0.742230,-0.752380,-0.738846,-0.749480,-0.742391,-0.748674,-0.744163,-0.743196,-0.709199,-0.720639,-0.720156,-0.716450,-0.713711,-0.705654,-0.664246,-0.687286,-0.663440,-0.638305,-0.676008,-0.637499,-0.641849,-0.635404,-0.623965,-0.618164,-0.601407,-0.589323,-0.595607,-0.543725,-0.548075,-0.561448,-0.519234,-0.528418,-0.533413,-0.493937,-0.526968,-0.529062,-0.516817,-0.518428,-0.552587,-0.537119,-0.552587,-0.540502,-0.545497,-0.538569,-0.557743,-0.571277,-0.567732,-0.559032,-0.545336,-0.543080,-0.527129,-0.563865,-0.552425,-0.542114,-0.568377,-0.523745,-0.573855,-0.575305,-0.552103,-0.580300,-0.614136,-0.585617,-0.617197,-0.638143,-0.617358,-0.632504,-0.624609,-0.646844,-0.634276,-0.654256,-0.645716,-0.670046,-0.650389,-0.663762,-0.699209,-0.649261,-0.697437,-0.686158,-0.686803,-0.719994,-0.719189,-0.704527,-0.758181,-0.727245,-0.756086,-0.797656,-0.746258,-0.812480,-0.793467,-0.800073,-0.814574,-0.819569,-0.835037,-0.836165,-0.844382,-0.844543,-0.865328,-0.844382,-0.864362,-0.835520,-0.855339,-0.867906,-0.852599,-0.850344,-0.864523,-0.847927,-0.821180,-0.875318,-0.829075,-0.829559,-0.841965,-0.843899,-0.841965,-0.837615,-0.849055,-0.842932,-0.835359,-0.849216,-0.877251,-0.820858,-0.885952,-0.865651,-0.847121,-0.875640,-0.883858,-0.880796,-0.895942,-0.880313,-0.889336,-0.908348,-0.892880,-0.900453,-0.904804,-0.912538,-0.910282,-0.900937,-0.902548,-0.899970,-0.899325,-0.873062,-0.898359,-0.886435,-0.871451,-0.890464,-0.862428,-0.867262,-0.864523,-0.834231,-0.863234,-0.872901,-0.831492,-0.876768,-0.851633,-0.833748,-0.874029,-0.887724,-0.905770,-0.912054,-0.896586,-0.920755,-0.917371,-0.917532,-0.928972,-0.930100,-0.934450,-0.965547,-0.940251,-0.953785,-0.955719,-0.971992,-0.946374,-0.965870,-0.969253,-0.960069,-0.970864,-0.950563,-0.979726,-0.949435,-0.943151,-0.951852,-0.961036,-0.933161,-0.943312,-0.932356,-0.921722,-0.942507,-0.896103,-0.937190,-0.919466,-0.920916,-0.929617,-0.925266,-0.892719,-0.910121,-0.922366,-0.917210,-0.940734,-0.910604,-0.934773,-0.930422,-0.942829,-0.943957,-0.928489,-0.909315,-0.942023,-0.930745,-0.892075,-0.942346,-0.894331,-0.895620,-0.899003,-0.876285,-0.871129,-0.880957,-0.854050,-0.863395,-0.850183,-0.846155,-0.848088,-0.822147,-0.839710,-0.822147,-0.809096,-0.812641,-0.814252,-0.802812,-0.784766,-0.820214,-0.838098,-0.828753,-0.819086,-0.834070,-0.840837,-0.815702,-0.840193,-0.845993,-0.864200,-0.840354,-0.864200,-0.844704,-0.881763,-0.848894,-0.841482,-0.855822,-0.866295,-0.854533,-0.885630,-0.869356,-0.858561,-0.867262,-0.819408,-0.835198,-0.842449,-0.813607,-0.814413,-0.799590,-0.812157,-0.781544,-0.770748,-0.782994,-0.781705,-0.739329,-0.760920,-0.745130,-0.748674,-0.779288,-0.756408,-0.766720,-0.793145,-0.805712,-0.800556,-0.850988,-0.849377,-0.837293,-0.926233,-0.887724,-0.925266,-0.930745,-0.948146,-0.967964,-0.975054,-0.972959,-0.990844,-0.975537,-0.959747,-0.982465,-0.944440,-0.958619,-0.923977,-0.908832,-0.906576,-0.860495,-0.820052,-0.832137,-0.776710,-0.732401,-0.741424,-0.651194,-0.658928,-0.625576,-0.579333,-0.545819,-0.511500,-0.481531,-0.431905,-0.372450,-0.338775,-0.311867,-0.205364,-0.211648,-0.151871,-0.090321,-0.062125,0.017471,0.081276,0.125263,0.201314,0.276398,0.309267,0.388541,0.439617,0.481187,0.512768,0.553693,0.586080,0.619916,0.659069,0.699995,0.738020,0.773468,0.812299,0.840979,0.873688,0.902207,0.927665,0.951350,0.978097,0.995982,1.017090,1.037714,1.048348,1.068327,1.080251,1.082023,1.087985,1.089918,1.083957,1.075739,1.065105,1.040453,1.024340,0.986153,0.940877,0.892056,0.832762,0.785230,0.719491,0.640056,0.562233,0.526302,0.426244,0.339397,0.256741,0.139925,0.085787,-0.009115,-0.092255,-0.213581,-0.308645,-0.370194,-0.465096,-0.552425,-0.630893,-0.721767,-0.813769,-0.837615,-0.915277,-0.926716,-0.962969,-0.982143,-0.984560,-0.994872,-0.996322,-0.983754,-1.026452,-1.024035,-1.033219,-1.030480,-1.060127,-1.033219,-1.051588,-1.071728,-1.079462,-1.087035,-1.073500,-1.074306,-1.076078,-1.060772,-1.078173,-1.076078,-1.088646,-1.098152,-1.094447,-1.096380,-1.108303,-1.097186,-1.093319,-1.108948,-1.100730,-1.103631,-1.101536,-1.110398,-1.097025,-1.101536,-1.099764,-1.093480,-1.099441,-1.103308,-1.101536,-1.095413,-1.100730,-1.095413,-1.095091,-1.092996,-1.094285,-1.092996,-1.088646,-1.083651,-1.087840,-1.093641,-1.072373,-1.083812,-1.096863,-1.069795,-1.078495,-1.079301,-1.066411,-1.057388,-1.053521,-1.039826,-1.039342,-1.032092,-1.020168,-1.020007,-1.006473,-0.998739,-0.993905,-0.979082,-0.978437,-0.957330,-0.955880,-0.957813,-0.918177,-0.913182,-0.919144,-0.880957,-0.893042,-0.900614,-0.876607,-0.901420,-0.882407,-0.888691,-0.923655,-0.877735,-0.882085,-0.926878,-0.894331,-0.925911,-0.933806,-0.893847,-0.911571,-0.923011,-0.904320,-0.899970,-0.909637,-0.903515,-0.915277,-0.913665,-0.914632,-0.903354,-0.906576,-0.897875,-0.893203,-0.894814,-0.899487,-0.879829,-0.854855,-0.879507,-0.846960,-0.837293,-0.854211,-0.851794,-0.831331,-0.826659,-0.804101,-0.803296,-0.795562,-0.761887,-0.796045,-0.767687,-0.772682,-0.775099,-0.764142,-0.742552,-0.766237,-0.721767,-0.740135,-0.747063,-0.712583,-0.755925,-0.714355,-0.711938,-0.713549,-0.717900,-0.698565,-0.724667,-0.721606,-0.681647,-0.729340,-0.703721,-0.721606,-0.713227,-0.722411,-0.734496,-0.726923,-0.695504,-0.721445,-0.676330,-0.695342,-0.737879,-0.671657,-0.729823,-0.724989,-0.703399,-0.734657,-0.727084,-0.721445,-0.715161,-0.730629,-0.710488,-0.740457,-0.714355,-0.717578,-0.731595,-0.703238,-0.714355,-0.714516,-0.693087,-0.694215,-0.716289,-0.708394,-0.711938,-0.697759,-0.705493,-0.687931,-0.704365,-0.723861,-0.708394,-0.716772,-0.701787,-0.693892,-0.708555,-0.718383,-0.682775,-0.708877,-0.701143,-0.674557,-0.691475,-0.675524,-0.653934,-0.645877,-0.664246,-0.642655,-0.643138,-0.642333,-0.628315,-0.619936,-0.626704,-0.601085,-0.611558,-0.608980,-0.587067,-0.590451,-0.558065,-0.546303,-0.545980,-0.550331,-0.574661,-0.537119,-0.531640,-0.534218,-0.530513,-0.558065,-0.544853,-0.523745,-0.542275,-0.563704,-0.533091,-0.554359,-0.531802,-0.518912,-0.526484,-0.528740,-0.508439,-0.502799,-0.502155,-0.495065,-0.501027,-0.471541,-0.475892,-0.446889,-0.467996,-0.474119,-0.465418,-0.413214,-0.452045,-0.420143,-0.400002,-0.461713,-0.386468,-0.404191,-0.417242,-0.397263,-0.397424,-0.398230,-0.399358,-0.395168,-0.418370,-0.381956,-0.403386,-0.375995,-0.411603,-0.402741,-0.399196,-0.430616,-0.389529,-0.391624,-0.432710,-0.402902,-0.429004,-0.439316,-0.408703,-0.415470,-0.420304,-0.422237,-0.407575,-0.397907,-0.420465,-0.414503,-0.409670,-0.401936,-0.424332,-0.374222,-0.381312,-0.417887,-0.392268,-0.375672,-0.378250,-0.384212,-0.393074,-0.360849,-0.383729,-0.393396,-0.356660,-0.363588,-0.352309,-0.337003,-0.334425,-0.315090,-0.300589,-0.309611,-0.310095,-0.284959,-0.299783,-0.296399,-0.283670,-0.283509,-0.284154,-0.268686,-0.284798,-0.293016,-0.280770,-0.298977,-0.284959,-0.288665,-0.322824,-0.292855,-0.323629,-0.308484,-0.338130,-0.334908,-0.313317,-0.327496,-0.341997,-0.315895,-0.357304,-0.373900,-0.328141,-0.397263,-0.371966,-0.376639,-0.400808,-0.405319,-0.386629,-0.416276,-0.415792,-0.405158,-0.399680,-0.392752,-0.421432,-0.383084,-0.434966,-0.419981,-0.420465,-0.443183,-0.441572,-0.408864,-0.432066,-0.469447,-0.427071,-0.482820,-0.478631,-0.487331,-0.497160,-0.504733,-0.518267,-0.503605,-0.508116,-0.535507,-0.540180,-0.536796,-0.580783,-0.542275,-0.565960,-0.571116,-0.575466,-0.573694,-0.593029,-0.584811,-0.590128,-0.620420,-0.580622,-0.588517,-0.597701,-0.581267,-0.605919,-0.624931,-0.591095,-0.608980,-0.594640,-0.579011,-0.601568,-0.569666,-0.626220,-0.598024,-0.605435,-0.613491,-0.605113,-0.609302,-0.618164,-0.602857,-0.589162,-0.622353,-0.579494,-0.608819,-0.601085,-0.575305,-0.599313,-0.606080,-0.586100,-0.608335,-0.606402,-0.616553,-0.626543,-0.617197,-0.633471,-0.625415,-0.641849,-0.666340,-0.654900,-0.657801,-0.702432,-0.698404,-0.713227,-0.735462,-0.718222,-0.748997,-0.767687,-0.755442,-0.782188,-0.771876,-0.792178,-0.797978,-0.803618,-0.807163,-0.822953,-0.805229,-0.812480,-0.826175,-0.790728,-0.840193,-0.834876,-0.835198,-0.833426,-0.850183,-0.833426,-0.831976,-0.849860,-0.830364,-0.860817,-0.840515,-0.855500,-0.854372,-0.866295,-0.862106,-0.865651,-0.858239,-0.853244,-0.871129,-0.873223,-0.888691,-0.870484,-0.895458,-0.876607,-0.872901,-0.890302,-0.896425,-0.883213,-0.900776,-0.907543,-0.906254,-0.917371,-0.907059,-0.913182,-0.910926,-0.908026,-0.920433,-0.925105,-0.915116,-0.905770,-0.936706,-0.900453,-0.918821,-0.923172,-0.915760,-0.929939,-0.931872,-0.925911,-0.936223,-0.937834,-0.934612,-0.951207,-0.943796,-0.958941,-0.941701,-0.955719,-0.960391,-0.953463,-0.969253,-0.974570,-0.961358,-0.973281,-0.975537,-0.960553,-0.977632,-0.962325,-0.972959,-0.972637,-0.971187,-0.962164,-0.977632,-0.964903,-0.950885,-0.987460,-0.957813,-0.977471,-0.970059,-0.977632,-0.977632,-0.983271,-0.987299,-0.994066,-0.992133,-0.993422,-1.014368,-0.993100,-1.011629,-1.007762,-1.013240,-1.013401,-1.022424,-1.021296,-1.012273,-1.016301,-1.007923,-1.027741,-1.009051,-1.023713,-1.022908,-1.019363,-1.030641,-1.031125,-1.026936,-1.037731,-1.037892,-1.036442,-1.041759,-1.035314,-1.032092,-1.057549,-1.045143,-1.063188,-1.050460,-1.050621,-1.057549,-1.046109,-1.059644,-1.060933,-1.052715,-1.054166,-1.066572,-1.054004,-1.070761,-1.065928,-1.067539,-1.078012,-1.072211,-1.071084,-1.082201,-1.079140,-1.061577,-1.090580,-1.091385,-1.087679,-1.095091,-1.098475,-1.082523,-1.094124,-1.084618,-1.086390,-1.104436,-1.089774,-1.098314,-1.083651,-1.089129,-1.097186,-1.095897,-1.102342,-1.090257,-1.094608,-1.107981,-1.093480,-1.103469,-1.116682,-1.100892,-1.118776,-1.104436,-1.099119,-1.097669,-1.112815,-1.095574,-1.106853,-1.120549,-1.099925,-1.115715,-1.107014,-1.100892,-1.098152,-1.115393,-1.093802,-1.115554,-1.108625,-1.099119,-1.117648,-1.094608,-1.117971,-1.108142,-1.117165,-1.125221,-1.119582,-1.126027,-1.123449,-1.130055,-1.140206,-1.141334,-1.121354,-1.141172,-1.124093,-1.121999,-1.136017,-1.136339,-1.108787,-1.134889,-1.136661,-1.118293,-1.138756,-1.123932,-1.130216,-1.138111,-1.130055,-1.130055,-1.143267,-1.134566,-1.141011,-1.148262,-1.150357,-1.155513,-1.121032,-1.143428,-1.135694,-1.144556,-1.143267,-1.132794,-1.134083,-1.151001,-1.130861,-1.138917,-1.149551,-1.117326,-1.145523,-1.139884,-1.139400,-1.140045,-1.154385,-1.149712,-1.135694,-1.140045,-1.151807,-1.152935,-1.136661,-1.145845,-1.145684,-1.134566,-1.152773,-1.137789,-1.144073,-1.140689,-1.152290,-1.141817,-1.153901,-1.158091,-1.142139,-1.154546,-1.149551,-1.147295,-1.156318,-1.145845,-1.156479,-1.155674,-1.139884,-1.143912,-1.165986,-1.151968,-1.140528,-1.151807,-1.157768,-1.144556,-1.128444,-1.146812,-1.157285,-1.144395,-1.137144,-1.162602,-1.139722,-1.143912,-1.137467,-1.143589,-1.142623,-1.140206,-1.128444,-1.149712,-1.121515,-1.123610,-1.144556,-1.108303,-1.131505,-1.137628,-1.131827,-1.120871,-1.139239,-1.133439,-1.119904,-1.101858,-1.118132,-1.134566,-1.108787,-1.131666,-1.087679,-1.103792,-1.096541,-1.107014,-1.103469,-1.108787,-1.104275,-1.104597,-1.128605,-1.097830,-1.117971,-1.099441,-1.107981,-1.128605,-1.128283,-1.102503,-1.137628,-1.131344,-1.113943,-1.152451,-1.115554,-1.148101,-1.148745,-1.142139,-1.154707,-1.142623,-1.145201,-1.146006,-1.147456,-1.136500,-1.148745,-1.131505,-1.150679,-1.142461,-1.145684,-1.136661,-1.141656,-1.136822,-1.147940,-1.145523,-1.146006,-1.151807,-1.133277,-1.129088,-1.150034,-1.155674,-1.140689,-1.144556,-1.153901,-1.145201,-1.154868,-1.154546,-1.160024,-1.141817,-1.141656,-1.155996,-1.155835,-1.145039,-1.156318,-1.156640,-1.145201,-1.152612,-1.157446,-1.158896,-1.149873,-1.160830,-1.161796,-1.156640,-1.157124,-1.145201,-1.156802,-1.159863,-1.164213,-1.158091,-1.162119,-1.149068,-1.141656,-1.161796,-1.150518,-1.158413,-1.150518,-1.160991,-1.150518,-1.163730,-1.151001,-1.163408,-1.162924,-1.146812,-1.175975,-1.146006,-1.155674,-1.164535,-1.169369,-1.162602,-1.173881,-1.161957,-1.157929,-1.177909,-1.170497,-1.168564,-1.171625,-1.182581,-1.152773,-1.175492,-1.174042,-1.166630,-1.170175,-1.164374,-1.176781,-1.170497,-1.186448,-1.171142,-1.171464,-1.170819,-1.176136,-1.157124,-1.178070,-1.185643,-1.161796,-1.191765,-1.172914,-1.176459,-1.176620,-1.180326,-1.179359,-1.175975,-1.162602,-1.173881,-1.163246,-1.151484,-1.173558,-1.163891,-1.165824,-1.170014,-1.162602,-1.157768,-1.158091,-1.144073,-1.143912,-1.147456,-1.145039,-1.147940,-1.133277,-1.134566,-1.156318,-1.113943,-1.138917,-1.141978,-1.130699,-1.137144,-1.153096,-1.129249,-1.139400,-1.135533,-1.125705,-1.147940,-1.118615,-1.137306,-1.128605,-1.138595,-1.134405,-1.138272,-1.105564,-1.122482,-1.127155,-1.104597,-1.131827,-1.105242,-1.097347,-1.114104,-1.104436,-1.090741,-1.116198,-1.109431,-1.115070,-1.102986,-1.086068,-1.119904,-1.087518,-1.092674,-1.115393,-1.092996,-1.092513,-1.109270,-1.082846,-1.070761,-1.106692,-1.068828,-1.085262,-1.100892,-1.085424,-1.094608,-1.098958,-1.082684,-1.082362,-1.090580,-1.080590,-1.105564,-1.099925,-1.111365,-1.094447,-1.097830,-1.106692,-1.108464,-1.103147,-1.131183,-1.100730,-1.111042,-1.139561,-1.114909,-1.136661,-1.125382,-1.130699,-1.153257,-1.135372,-1.136339,-1.148906,-1.146812,-1.138595,-1.161796,-1.148584,-1.165180,-1.160991,-1.147940,-1.175653,-1.167597,-1.149068,-1.164374,-1.171303,-1.172269,-1.176620,-1.155674,-1.153740,-1.162602,-1.150034,-1.147779,-1.142945,-1.140206,-1.146006,-1.128927,-1.122804,-1.125060,-1.096058,-1.092191,-1.094769,-1.051265,-1.078334,-1.053521,-1.037248,-1.016301,-1.023713,-1.010179,-1.006151,-0.996161,-0.966514,-0.934773,-0.940090,-0.946696,-0.900937,-0.880474,-0.840515,-0.814896,-0.779288,-0.753186,-0.724667,-0.655867,-0.642172,-0.569988,-0.541630,-0.482498,-0.400485,-0.342159,-0.288988,-0.234044,-0.159605,-0.101117,-0.035700,0.029877,0.130580,0.186007,0.247234,0.311684,0.362922,0.412065,0.449285,0.479737,0.509867,0.544187,0.566906,0.595103,0.623138,0.645051,0.667125,0.690166,0.705957,0.717396,0.728675,0.734959,0.734153,0.734798,0.736409,0.723358,0.715785,0.695645,0.677599,0.637317,0.621366,0.576090,0.487632,0.512123,0.390474,0.375167,0.324735,0.213398,0.162805,0.104478,0.006031,-0.043756,-0.110623,-0.228727,-0.298816,-0.395168,-0.447211,-0.576111,-0.627348,-0.742552,-0.823114,-0.900292,-0.958136,-1.040309,-1.097991,-1.094930,-1.123127,-1.138433,-1.152451,-1.146812,-1.144717,-1.129733,-1.133600,-1.144234,-1.148745,-1.174847,-1.151646,-1.151807,-1.146812,-1.146167,-1.166630,-1.175814,-1.163085,-1.156157,-1.140206,-1.162441,-1.184193,-1.181776,-1.176620,-1.169530,-1.143106,-1.180970,-1.186126,-1.184193,-1.171303,-1.163246,-1.171464,-1.177425,-1.188060,-1.189993,-1.194182,-1.177587,-1.183065,-1.177425,-1.165986,-1.171303,-1.185482,-1.197566,-1.210778,-1.204333,-1.200949,-1.214806,-1.189187,-1.200144,-1.191282,-1.181776,-1.190638,-1.189349,-1.185643,-1.192732,-1.194182,-1.183548,-1.197405,-1.186609,-1.194182,-1.198533,-1.198372,-1.197888,-1.207556,-1.204978,-1.209167,-1.218673,-1.198210,-1.210456,-1.203205,-1.200144,-1.176781,-1.186287,-1.188221,-1.192410,-1.181937,-1.211584,-1.211261,-1.191604,-1.204011,-1.176459,-1.184354,-1.192571,-1.204655,-1.198210,-1.193054,-1.191927,-1.188060,-1.199177,-1.188060,-1.198210,-1.175814,-1.188382,-1.198049,-1.205139,-1.201755,-1.196599,-1.190154,-1.184998,-1.210939,-1.196599,-1.192893,-1.200627,-1.188382,-1.194827,-1.209328,-1.175331,-1.208522,-1.205622,-1.182259,-1.208361,-1.170819,-1.190638,-1.203689,-1.187576,-1.185965,-1.192732,-1.202400,-1.187737,-1.188060,-1.210134,-1.200466,-1.195149,-1.201433,-1.207717,-1.187254,-1.189993,-1.193860,-1.203205,-1.191765,-1.199822,-1.209328,-1.192893,-1.181937,-1.200466,-1.194343,-1.175170,-1.204816,-1.198049,-1.177587,-1.204494,-1.209489,-1.180648,-1.200949,-1.216417,-1.189993,-1.202883,-1.205783,-1.203689,-1.200788,-1.206428,-1.212550,-1.186771,-1.206911,-1.212067,-1.203527,-1.199499,-1.219640,-1.192410,-1.187576,-1.209167,-1.210134,-1.188221,-1.227535,-1.204494,-1.195310,-1.226246,-1.187737,-1.208361,-1.195310,-1.188221,-1.204655,-1.196116,-1.189832,-1.190638,-1.186287,-1.170336,-1.204494,-1.170336,-1.200627,-1.180487,-1.171786,-1.190154,-1.181615,-1.181615,-1.177264,-1.198210,-1.180809,-1.206428,-1.181615,-1.191443,-1.193216,-1.195310,-1.195310,-1.190638,-1.185159,-1.194988,-1.189026,-1.173881,-1.212873,-1.166469,-1.183709,-1.192732,-1.205139,-1.198533,-1.198855,-1.201272,-1.187737,-1.204816,-1.189671,-1.218995,-1.175975,-1.196116,-1.189510,-1.170336,-1.194343,-1.173075,-1.186448,-1.193860,-1.185320,-1.170658,-1.180487,-1.183709,-1.150357,-1.181615,-1.185643,-1.173558,-1.188865,-1.170658,-1.172269,-1.164697,-1.163569,-1.177587,-1.154546,-1.157768,-1.188221,-1.150357,-1.160185,-1.159380,-1.145684,-1.146973,-1.164858,-1.163730,-1.156963,-1.165502,-1.164535,-1.177264,-1.159380,-1.174042,-1.158413,-1.163569,-1.151484,-1.169369,-1.167275,-1.157929,-1.183387,-1.154062,-1.177103,-1.175653,-1.163408,-1.168886,-1.172431,-1.165180,-1.171947,-1.158574,-1.160185,-1.169369,-1.157929,-1.183065,-1.148423,-1.159218,-1.179037,-1.165824,-1.161474,-1.172431,-1.160668,-1.160185,-1.178714,-1.152451,-1.189510,-1.172108,-1.191443,-1.183226,-1.176459,-1.180003,-1.177103,-1.177748,-1.189187,-1.192732,-1.164697,-1.171303,-1.177587,-1.148745,-1.179842,-1.179520,-1.156802,-1.166630,-1.187415,-1.146973,-1.171142,-1.138272,-1.144073,-1.146006,-1.144556,-1.158896,-1.142139,-1.121999,-1.131988,-1.135855,-1.130377,-1.144395,-1.148262,-1.137628,-1.164535,-1.146006,-1.136339,-1.158574,-1.153257,-1.148101,-1.175492,-1.163730,-1.165824,-1.176942,-1.172753,-1.178070,-1.166791,-1.175170,-1.178070,-1.163085,-1.173397,-1.172431,-1.155513,-1.169369,-1.154224,-1.145362,-1.164213,-1.131183,-1.145684,-1.135694,-1.125060,-1.121354,-1.129572,-1.132472,-1.125866,-1.145362,-1.140689,-1.133277,-1.146651,-1.155835,-1.153901,-1.157768,-1.149873,-1.169691,-1.155835,-1.167758,-1.172592,-1.148423,-1.175814,-1.168080,-1.179681,-1.170336,-1.153257,-1.158574,-1.172592,-1.158091,-1.166952,-1.169047,-1.151646,-1.170658,-1.147456,-1.158735,-1.140206,-1.153901,-1.151484,-1.154707,-1.147940,-1.157929,-1.148906,-1.144073,-1.163246,-1.162924,-1.163408,-1.165824,-1.169530,-1.161635,-1.171786,-1.168241,-1.169853,-1.183709,-1.167758,-1.176136,-1.161957,-1.175009,-1.188221,-1.173397,-1.180165,-1.188543,-1.183709,-1.185804,-1.192571,-1.181776,-1.206267,-1.180165,-1.183709,-1.182904,-1.177587,-1.191282,-1.186609,-1.169853,-1.180003,-1.183870,-1.175009,-1.187254,-1.172108,-1.187254,-1.185804,-1.173075,-1.170336,-1.180809,-1.169691,-1.173720,-1.181776,-1.168564,-1.176136,-1.160668,-1.171142,-1.161152,-1.158896,-1.173236,-1.173397,-1.155996,-1.180326,-1.165824,-1.142784,-1.173881,-1.157929,-1.166952,-1.148262,-1.154546,-1.166952,-1.147456,-1.133761,-1.174525,-1.154868,-1.152451,-1.165019,-1.138433,-1.154385,-1.139884,-1.153901,-1.147456,-1.163569,-1.153579,-1.137306,-1.169047,-1.143750,-1.154385,-1.164374,-1.158252,-1.142945,-1.160668,-1.145362,-1.142139,-1.107981,-1.116359,-1.148262,-1.102019,-1.127477,-1.106209,-1.095413,-1.109592,-1.121838,-1.089452,-1.114426,-1.107336,-1.102019,-1.132311,-1.116037,-1.152290,-1.123288,-1.136661,-1.138111,-1.145523,-1.153096,-1.141172,-1.154707,-1.129894,-1.169208,-1.136822,-1.152129,-1.169853,-1.151646,-1.167597,-1.171464,-1.160185,-1.168886,-1.153740,-1.143589,-1.182098,-1.141172,-1.170819,-1.170980,-1.162763,-1.159702,-1.162280,-1.166469,-1.155351,-1.162280,-1.162441,-1.147295,-1.144556,-1.144556,-1.163085,-1.136339,-1.157285,-1.152773,-1.142945,-1.146973,-1.169853,-1.144234,-1.179359,-1.175975,-1.171142,-1.185482,-1.155190,-1.179681,-1.172914,-1.173236,-1.170497,-1.180003,-1.173720,-1.160991,-1.173881,-1.166147,-1.183387,-1.169369,-1.172753,-1.178070,-1.171625,-1.155674,-1.175170,-1.166630,-1.148906,-1.179520,-1.157446,-1.156802,-1.152773,-1.151323,-1.150840,-1.162924,-1.152935,-1.165824,-1.166791,-1.165986,-1.190638,-1.167275,-1.184193,-1.180648,-1.178070,-1.205622,-1.195632,-1.193699,-1.212712,-1.208039,-1.192249,-1.223507,-1.188704,-1.212067,-1.198694,-1.204816,-1.199016,-1.209328,-1.199822,-1.196760,-1.213195,-1.204978,-1.207556,-1.190799,-1.207233,-1.194182,-1.192732,-1.215290,-1.196277,-1.211906,-1.206750,-1.192732,-1.198694,-1.214806,-1.183387,-1.210939,-1.217706,-1.198855,-1.207072,-1.229952,-1.191282,-1.214967,-1.210456,-1.191927,-1.222862,-1.193054,-1.196760,-1.202077,-1.190799,-1.209972,-1.200949,-1.203850,-1.199661,-1.198694,-1.200305,-1.213678,-1.197244,-1.196599,-1.200627,-1.190476,-1.194827,-1.192893,-1.193699,-1.199499,-1.209811,-1.184354,-1.194666,-1.202883,-1.194827,-1.198533,-1.185965,-1.208200,-1.186287,-1.206267,-1.205783,-1.194182,-1.193538,-1.218029,-1.204333,-1.192410,-1.214323,-1.199177,-1.199822,-1.204816,-1.199983,-1.189187,-1.204333,-1.199499,-1.191443,-1.194505,-1.185159,-1.196760,-1.184031,-1.181776,-1.178070,-1.184837,-1.176620,-1.203366,-1.177909,-1.175492,-1.189510,-1.165824,-1.181615,-1.166308,-1.169208,-1.160185,-1.173881,-1.177103,-1.167919,-1.146490,-1.171786,-1.146973,-1.132311,-1.154707,-1.129249,-1.119260,-1.126510,-1.133600,-1.133277,-1.130699,-1.131666,-1.151162,-1.173236,-1.182098,-1.180003,-1.179037,-1.195794,-1.183870,-1.202883,-1.185482,-1.196277,-1.176298,-1.182742,-1.210617,-1.164535,-1.194827,-1.190476,-1.184998,-1.195149,-1.196921,-1.175170,-1.199016,-1.186932,-1.175492,-1.218512,-1.174847,-1.189993,-1.187093,-1.193377,-1.197566,-1.188382,-1.186932,-1.195471,-1.186448,-1.188060,-1.189187,-1.178231,-1.208683,-1.182904,-1.178070,-1.200144,-1.205461,-1.191604,-1.195149,-1.182742,-1.170658,-1.207717,-1.172431,-1.190154,-1.202561,-1.195794,-1.193538,-1.197083,-1.197727,-1.209972,-1.201916,-1.189349,-1.216095,-1.194021,-1.196599,-1.198372,-1.190476,-1.211423,-1.208200,-1.199983,-1.200949,-1.201272,-1.209972,-1.212712,-1.181615,-1.221896,-1.196438,-1.204816,-1.220768,-1.209811,-1.215612,-1.206589,-1.212067,-1.211100,-1.214323,-1.219962,-1.214001,-1.218190,-1.200788,-1.209006,-1.213034,-1.192410,-1.210295,-1.219157,-1.219479,-1.219801,-1.219640,-1.205622,-1.205944,-1.184031,-1.210295,-1.223990,-1.213678,-1.209650,-1.220768,-1.214162,-1.222057,-1.195149,-1.205944,-1.214001,-1.212873,-1.219640,-1.202722,-1.189832,-1.202722,-1.210134,-1.203527,-1.222701,-1.217545,-1.189510,-1.229630,-1.214323,-1.200788,-1.226407,-1.202722,-1.204655,-1.228824,-1.199822,-1.214806,-1.209328,-1.196438,-1.214645,-1.192732,-1.217384,-1.209811,-1.217868,-1.227535,-1.208683,-1.212873,-1.205622,-1.217384,-1.204978,-1.239136,-1.224957,-1.214484,-1.214645,-1.221251,-1.217384,-1.227374,-1.229791,-1.213034,-1.217545,-1.214967,-1.212712,-1.221412,-1.209972,-1.214484,-1.216579,-1.215128,-1.235591,-1.201755,-1.200466,-1.232046,-1.189510,-1.222862,-1.209167,-1.199499,-1.217062,-1.215773,-1.201594,-1.206589,-1.215612,-1.204655,-1.213195,-1.206750,-1.218512,-1.191927,-1.215612,-1.206911,-1.203850,-1.208039,-1.206750,-1.205139,-1.186287,-1.219479,-1.159057,-1.198855,-1.210134,-1.187415,-1.213034,-1.211261,-1.170819,-1.212228,-1.192088,-1.189832,-1.217384,-1.171786,-1.201272,-1.171464,-1.189832,-1.202238,-1.184998,-1.199661,-1.211906,-1.186609,-1.187093,-1.206267,-1.174364,-1.205300,-1.200788,-1.195310,-1.175653,-1.207233,-1.193538,-1.195632,-1.203205,-1.187415,-1.199338,-1.166952,-1.188221,-1.184354,-1.167113,-1.185804,-1.184676,-1.175975,-1.175653,-1.184676,-1.170980,-1.195794,-1.171625,-1.167275,-1.176781,-1.175009,-1.174042,-1.174525,-1.172269,-1.174364,-1.172753,-1.142139,-1.146651,-1.168886,-1.143106,-1.143589,-1.150195,-1.145201,-1.138433,-1.148745,-1.147940,-1.164374,-1.133439,-1.149873,-1.175492,-1.119099,-1.162924,-1.148101,-1.146006,-1.160024,-1.153257,-1.175492,-1.174042,-1.171786,-1.187737,-1.195149,-1.176136,-1.197244,-1.179359,-1.196277,-1.198372,-1.180487,-1.196599,-1.185482,-1.175492,-1.164374,-1.199822,-1.160346,-1.158091,-1.159057,-1.127316,-1.122160,-1.125705,-1.092674,-1.103792,-1.086229,-1.054166,-1.082846,-1.008729,-1.039664,-0.991649,-0.993422,-0.994550,-0.947663,-0.919627,-0.924622,-0.853727,-0.831492,-0.815380,-0.746419,-0.744163,-0.680036,-0.622514,-0.593029,-0.527612,-0.463324,-0.416759,-0.371644,-0.299138,-0.269330,-0.167339,-0.110945,-0.045207,0.012798,0.069836,0.150721,0.206953,0.253679,0.298472,0.342620,0.378551,0.412870,0.443967,0.467008,0.496494,0.523080,0.546926,0.576573,0.593169,0.611215,0.626361,0.639734,0.646179,0.649724,0.649079,0.641829,0.629261,0.629906,0.608798,0.580440,0.563361,0.538387,0.482476,0.444290,0.437845,0.343103,0.324574,0.272047,0.208887,0.128163,0.065808,-0.002348,-0.045851,-0.143815,-0.226794,-0.294466,-0.399035,-0.445761,-0.553070,-0.654256,-0.686642,-0.782349,-0.866295,-0.939929,-1.025163,-1.099441,-1.130377,-1.173075,-1.159702,-1.153096,-1.161474,-1.185482,-1.193860,-1.197083,-1.184998,-1.165502,-1.181131,-1.166952,-1.170980,-1.192893,-1.204333,-1.202722,-1.209972,-1.189510,-1.193377,-1.178231,-1.165502,-1.184998,-1.161957,-1.204172,-1.206750,-1.200305,-1.218190,-1.220123,-1.208683,-1.209006,-1.210778,-1.213195,-1.211906,-1.197727,-1.231080,-1.201111,-1.214967,-1.227374,-1.216256,-1.217706,-1.236236,-1.218351,-1.212389,-1.211584,-1.173075,-1.205944,-1.196921,-1.189993,-1.199499,-1.214001,-1.212712,-1.227374,-1.203850,-1.168080,-1.215612,-1.195794,-1.228985,-1.230113,-1.192410,-1.197566,-1.204494,-1.209328,-1.231563,-1.194827,-1.205622,-1.213195,-1.201916,-1.206911,-1.192249,-1.203527,-1.218834,-1.201111,-1.197244,-1.205783,-1.199177,-1.193860,-1.210939,-1.178714,-1.198855,-1.207556,-1.185159,-1.190315,-1.191443,-1.192249,-1.178392,-1.187254,-1.189026,-1.199338,-1.176459,-1.176781,-1.185159,-1.163569,-1.176298,-1.182259,-1.162924,-1.178714,-1.175814,-1.193054,-1.183387,-1.179520,-1.184998,-1.170980,-1.168564,-1.185643,-1.176136,-1.163246,-1.173075,-1.162280,-1.174042,-1.173236,-1.172269,-1.166952,-1.171786,-1.163569,-1.171303,-1.175814,-1.167275,-1.145362,-1.180648,-1.164374,-1.151001,-1.178392,-1.151323,-1.152290,-1.147295,-1.160024,-1.142623,-1.136983,-1.145201,-1.116521,-1.099925,-1.119743,-1.116198,-1.058194,-1.101053,-1.060127,-1.060611,-1.042404,-1.034831,-1.011790,-1.027097,-0.990522,-0.957330,-1.000995,-0.952980,-0.978598,-0.951046,-0.943796,-0.937673,-0.947985,-0.938640,-0.946857,-0.941540,-0.931389,-0.960230,-0.906093,-0.954430,-0.946535,-0.931872,-0.955719,-0.932195,-0.938317,-0.968448,-0.936384,-0.929617,-0.966353,-0.916888,-0.942184,-0.938962,-0.939445,-0.920110,-0.926878,-0.926072,-0.906576,-0.920916,-0.923333,-0.916082,-0.904965,-0.913504,-0.896264,-0.877090,-0.884180,-0.894008,-0.867262,-0.871129,-0.862428,-0.861945,-0.871290,-0.852438,-0.853566,-0.854694,-0.845188,-0.855983,-0.826659,-0.840515,-0.853566,-0.822308,-0.841482,-0.861139,-0.836809,-0.818441,-0.829075,-0.834715,-0.812157,-0.814252,-0.816185,-0.833103,-0.823758,-0.830364,-0.838904,-0.806518,-0.811835,-0.815863,-0.801845,-0.783800,-0.798784,-0.779933,-0.766559,-0.797334,-0.760598,-0.761887,-0.757859,-0.755764,-0.779449,-0.736912,-0.769782,-0.760437,-0.753992,-0.740779,-0.790083,-0.755603,-0.745130,-0.788150,-0.742391,-0.776710,-0.773165,-0.782511,-0.788311,-0.808935,-0.777355,-0.818602,-0.796367,-0.771232,-0.807485,-0.770910,-0.796045,-0.785250,-0.800556,-0.813930,-0.781060,-0.797978,-0.790244,-0.759631,-0.757214,-0.783155,-0.729823,-0.776549,-0.766882,-0.742230,-0.746258,-0.747224,-0.727245,-0.764142,-0.766559,-0.736268,-0.800718,-0.752058,-0.785411,-0.763176,-0.763820,-0.795723,-0.797656,-0.769298,-0.800395,-0.776549,-0.780899,-0.814896,-0.754153,-0.797334,-0.786539,-0.787022,-0.800073,-0.786216,-0.768171,-0.769782,-0.794434,-0.777032,-0.777677,-0.800879,-0.776871,-0.758986,-0.758020,-0.778805,-0.776066,-0.769298,-0.731918,-0.744002,-0.724023,-0.719994,-0.721928,-0.701143,-0.725473,-0.675363,-0.706943,-0.715483,-0.691475,-0.687125,-0.711133,-0.663601,-0.693409,-0.702110,-0.665373,-0.705654,-0.686642,-0.730467,-0.711616,-0.724989,-0.735623,-0.738846,-0.724184,-0.745935,-0.785733,-0.754797,-0.757536,-0.786539,-0.760437,-0.775260,-0.765270,-0.763337,-0.793306,-0.760598,-0.777516,-0.798784,-0.731434,-0.792822,-0.780577,-0.784122,-0.793628,-0.777838,-0.769459,-0.787989,-0.764304,-0.765109,-0.786055,-0.753025,-0.777193,-0.780577,-0.774293,-0.755925,-0.774938,-0.798784,-0.779933,-0.790083,-0.779610,-0.806518,-0.789600,-0.798462,-0.826175,-0.782188,-0.810546,-0.832781,-0.807485,-0.799751,-0.838421,-0.815058,-0.812480,-0.804262,-0.827142,-0.836970,-0.825370,-0.860172,-0.827947,-0.838904,-0.837293,-0.835843,-0.841965,-0.859367,-0.842610,-0.837776,-0.888369,-0.857111,-0.851794,-0.883535,-0.875157,-0.857755,-0.897714,-0.879185,-0.874190,-0.887563,-0.873707,-0.894975,-0.885630,-0.877574,-0.898198,-0.890786,-0.876768,-0.898359,-0.886435,-0.902548,-0.884502,-0.899970,-0.902065,-0.866939,-0.900776,-0.900937,-0.873384,-0.880474,-0.892880,-0.865489,-0.892397,-0.890947,-0.849055,-0.896909,-0.892397,-0.871612,-0.882085,-0.896909,-0.887724,-0.908348,-0.892880,-0.885308,-0.928005,-0.895781,-0.906737,-0.901420,-0.905126,-0.904320,-0.910282,-0.927200,-0.909154,-0.902387,-0.921561,-0.926233,-0.914471,-0.937995,-0.928489,-0.951852,-0.941057,-0.943312,-0.953946,-0.973765,-0.967642,-0.959425,-0.999222,-0.986977,-0.961842,-1.014046,-0.991166,-1.010501,-1.025485,-1.012918,-1.027741,-1.048365,-1.019041,-1.043370,-1.052554,-1.047882,-1.050621,-1.063350,-1.068828,-1.057227,-1.073662,-1.066411,-1.071567,-1.063188,-1.069956,-1.077529,-1.078173,-1.084779,-1.073178,-1.088968,-1.089291,-1.084457,-1.067378,-1.083812,-1.086713,-1.094124,-1.106047,-1.096219,-1.118454,-1.097669,-1.100408,-1.116359,-1.112170,-1.112009,-1.126027,-1.116682,-1.118454,-1.124093,-1.107820,-1.133116,-1.112815,-1.120388,-1.127155,-1.129733,-1.128283,-1.134566,-1.129249,-1.109109,-1.130377,-1.118454,-1.109914,-1.137789,-1.126671,-1.114587,-1.132311,-1.129572,-1.132633,-1.134566,-1.114909,-1.142945,-1.119099,-1.128766,-1.122804,-1.120710,-1.123771,-1.118615,-1.119743,-1.128121,-1.105242,-1.111687,-1.137950,-1.103147,-1.120549,-1.136661,-1.120065,-1.118937,-1.129894,-1.124254,-1.122965,-1.138272,-1.127960,-1.142623,-1.133761,-1.127477,-1.137467,-1.136500,-1.130055,-1.132633,-1.141817,-1.151001,-1.139400,-1.155996,-1.160668,-1.156479,-1.136661,-1.168886,-1.160830,-1.158896,-1.161152,-1.155674,-1.149068,-1.170336,-1.167113,-1.175492,-1.158574,-1.156157,-1.187898,-1.168402,-1.163085,-1.162280,-1.167275,-1.159541,-1.167919,-1.170336,-1.165663,-1.170980,-1.168241,-1.178231,-1.165502,-1.164535,-1.172108,-1.165502,-1.166469,-1.181453,-1.152612,-1.176298,-1.188543,-1.145523,-1.176136,-1.162763,-1.180165,-1.171947,-1.175814,-1.156802,-1.161796,-1.160185,-1.149229,-1.150034,-1.150840,-1.161635,-1.137306,-1.159380,-1.154546,-1.153901,-1.133439,-1.148584,-1.134566,-1.131505,-1.157768,-1.133761,-1.134566,-1.148423,-1.142784,-1.131022,-1.143428,-1.135050,-1.143428,-1.143267,-1.124254,-1.139078,-1.113298,-1.146490,-1.122160,-1.124899,-1.148101,-1.139400,-1.124738,-1.156318,-1.138595,-1.135372,-1.156963,-1.135533,-1.141978,-1.141495,-1.146490,-1.128605,-1.124093,-1.121193,-1.128121,-1.110076,-1.106853,-1.127799,-1.079462,-1.082362,-1.084618,-1.065283,-1.078334,-1.068506,-1.044820,-1.074951,-1.035797,-1.028063,-1.064316,-1.004862,-1.040953,-1.030641,-1.018074,-1.061900,-1.045787,-1.026452,-1.042242,-1.027097,-1.052232,-1.072856,-1.038537,-1.039987,-1.037409,-1.024519,-1.043531,-1.040148,-1.031286,-1.025969,-1.058838,-1.010340,-1.028386,-1.013079,-1.013885,-1.002284,-1.001961,-1.010984,-1.006312,-0.985849,-1.025002,-0.980210,-0.996967,-1.018557,-0.984238,-0.997289,-1.002445,-0.984238,-0.982465,-0.982465,-0.978921,-0.968286,-0.981176,-0.983110,-0.983271,-0.968286,-0.985849,-0.987621,-0.950724,-0.998094,-0.984721,-0.983916,-0.975859,-0.991811,-0.970381,-0.964420,-0.999706,-0.954430,-0.968286,-0.967642,-0.963614,-0.983110,-0.981499,-0.958458,-0.945407,-0.950885,-0.973281,-0.983110,-0.957008,-0.966836,-0.952657,-0.958780,-0.950885,-0.954752,-0.935739,-0.966031,-0.952174,-0.928489,-0.974570,-0.937834,-0.932034,-0.929617,-0.938962,-0.951046,-0.962325,-0.931067,-0.952496,-0.962164,-0.931067,-0.971348,-0.931228,-0.976665,-0.944924,-0.960714,-0.971670,-0.962164,-0.939445,-0.977148,-0.955235,-0.959586,-0.990683,-0.948952,-0.987944,-0.956847,-0.995194,-0.974731,-0.962003,-0.981821,-1.004056,-0.996322,-1.010179,-1.007117,-0.984882,-1.012918,-0.995194,-0.992616,-0.989877,-1.010662,-0.998094,-0.985204,-1.006634,-0.989877,-0.990522,-0.968609,-0.979887,-0.981660,-0.985527,-0.989877,-0.985366,-0.984882,-0.960553,-0.964742,-0.990522,-0.994711,-0.982465,-0.992133,-0.983754,-0.985688,-1.005506,-0.996161,-0.999867,-1.021941,-1.036281,-1.036603,-1.050137,-1.051426,-1.048043,-1.062222,-1.059483,-1.060449,-1.079945,-1.077045,-1.076884,-1.100730,-1.092030,-1.096541,-1.081396,-1.081396,-1.107820,-1.085101,-1.100408,-1.103147,-1.089935,-1.100247,-1.108787,-1.096380,-1.107498,-1.108787,-1.101214,-1.119099,-1.104114,-1.115554,-1.090096,-1.106047,-1.108787,-1.111042,-1.099119,-1.099925,-1.109270,-1.083812,-1.108625,-1.090580,-1.089935,-1.115232,-1.100086,-1.101053,-1.107659,-1.085262,-1.108142,-1.109914,-1.092674,-1.131666,-1.115393,-1.115554,-1.130538,-1.125221,-1.128283,-1.131183,-1.128444,-1.134566,-1.134405,-1.135211,-1.158896,-1.137306,-1.147940,-1.139561,-1.145362,-1.139722,-1.155351,-1.148423,-1.144234,-1.157285,-1.118615,-1.147617,-1.151968,-1.137306,-1.140850,-1.158091,-1.129733,-1.144556,-1.144234,-1.118132,-1.151646,-1.123771,-1.139078,-1.128121,-1.134728,-1.146006,-1.130538,-1.134566,-1.141011,-1.129410,-1.127477,-1.150679,-1.124093,-1.141172,-1.129572,-1.146812,-1.127960,-1.137789,-1.131183,-1.115876,-1.147456,-1.139400,-1.128605,-1.133277,-1.129249,-1.135211,-1.127960,-1.132150,-1.138111,-1.117648,-1.128444,-1.133922,-1.112170,-1.144234,-1.137467,-1.132955,-1.133277,-1.122160,-1.127155,-1.113137,-1.122643,-1.127477,-1.131666,-1.119099,-1.107820,-1.123288,-1.126188,-1.107659,-1.102342,-1.121032,-1.106692,-1.120549,-1.113459,-1.109914,-1.107981,-1.112009,-1.117165,-1.102825,-1.107981,-1.104758,-1.106370,-1.113459,-1.080268,-1.102986,-1.112170,-1.076723,-1.090418,-1.107336,-1.082201,-1.092996,-1.075595,-1.093319,-1.080590,-1.078173,-1.083651,-1.076562,-1.072695,-1.079623,-1.112976,-1.072373,-1.087679,-1.109914,-1.094930,-1.114104,-1.135855,-1.115876,-1.134566,-1.144073,-1.122804,-1.158896,-1.129249,-1.149873,-1.153901,-1.144556,-1.149551,-1.159380,-1.146328,-1.147940,-1.134405,-1.135855,-1.154707,-1.118132,-1.127960,-1.109753,-1.105725,-1.106370,-1.077529,-1.068344,-1.052393,-1.020168,-1.022102,-1.008729,-0.953946,-0.943796,-0.940573,-0.885469,-0.890141,-0.873384,-0.816024,-0.817797,-0.793950,-0.709360,-0.733368,-0.667790,-0.620420,-0.623642,-0.557743,-0.505216,-0.473797,-0.412409,-0.365360,-0.303489,-0.246773,-0.201819,-0.122385,-0.070664,-0.006376,0.054207,0.107378,0.169733,0.259480,0.296699,0.342620,0.404975,0.429950,0.463625,0.498428,0.529202,0.561427,0.596392,0.625877,0.658425,0.693550,0.718202,0.746721,0.772985,0.791514,0.813588,0.830184,0.843074,0.856286,0.868371,0.872721,0.874977,0.875783,0.863215,0.854514,0.839046,0.833890,0.778946,0.763317,0.712240,0.665192,0.599775,0.552727,0.451218,0.401269,0.339559,0.230155,0.188102,0.080793,-0.027161,-0.103856,-0.197791,-0.312351,-0.370194,-0.487654,-0.565799,-0.652967,-0.769459,-0.816508,-0.940895,-0.969414,-1.030319,-1.067217,-1.072534,-1.086551,-1.090902,-1.086874,-1.097991,-1.108625,-1.092835,-1.105242,-1.109753,-1.098314,-1.096863,-1.106531,-1.107175,-1.099441,-1.117326,-1.121032,-1.136983,-1.136661,-1.141978,-1.136822,-1.129894,-1.138917,-1.130699,-1.132311,-1.161152,-1.166791,-1.149873,-1.155996,-1.131022,-1.145201,-1.168564,-1.159863,-1.166952,-1.150034,-1.133600,-1.142623,-1.165341,-1.187415,-1.173720,-1.157446,-1.154546,-1.140528,-1.153579,-1.173397,-1.174847,-1.172914,-1.171142,-1.175814,-1.158091,-1.167597,-1.145845,-1.152612,-1.165019,-1.141011,-1.158896,-1.155351,-1.145523,-1.151162,-1.166469,-1.150840,-1.164535,-1.165502,-1.151646,-1.153901,-1.144878,-1.151323,-1.133922,-1.140850,-1.149390,-1.133761,-1.141334,-1.152935,-1.141817,-1.139884,-1.150840,-1.146328,-1.152773,-1.146006,-1.145523,-1.135855,-1.151323,-1.134889,-1.136339,-1.138595,-1.128927,-1.130699,-1.138111,-1.126671,-1.133277,-1.126027,-1.122160,-1.133761,-1.116682,-1.123449,-1.132955,-1.107498,-1.123127,-1.100892,-1.100569,-1.110720,-1.109592,-1.101858,-1.106692,-1.087518,-1.081234,-1.091224,-1.072373,-1.090902,-1.065928,-1.080107,-1.071245,-1.053843,-1.043692,-1.061738,-1.027741,-1.014851,-1.076401,-1.007117,-1.039342,-1.036281,-0.999061,-0.985688,-1.002123,-0.991972,-0.977471,-0.929456,-0.916727,-0.934289,-0.884180,-0.898036,-0.881602,-0.878863,-0.861300,-0.847121,-0.851472,-0.849055,-0.833587,-0.838743,-0.852438,-0.791695,-0.831331,-0.845832,-0.815058,-0.848410,-0.852277,-0.822953,-0.852277,-0.846799,-0.865812,-0.889175,-0.840193,-0.850827,-0.879185,-0.890302,-0.873546,-0.873868,-0.893525,-0.900453,-0.875640,-0.918177,-0.913504,-0.889336,-0.928811,-0.926394,-0.905770,-0.950563,-0.941218,-0.937834,-0.939445,-0.953946,-0.923494,-0.947663,-0.938640,-0.920272,-0.928489,-0.913665,-0.926878,-0.930100,-0.907382,-0.889013,-0.898036,-0.855661,-0.909798,-0.864200,-0.870806,-0.896425,-0.852438,-0.861945,-0.890302,-0.885630,-0.899809,-0.920594,-0.909315,-0.917049,-0.947340,-0.912538,-0.957975,-0.967481,-0.964420,-0.967159,-0.985204,-0.960714,-0.987944,-0.950402,-0.944924,-0.965870,-0.928167,-0.958458,-0.945407,-0.934450,-0.958297,-0.953302,-0.928972,-0.966031,-0.966997,-0.960230,-0.986493,-0.979726,-1.021135,-0.957975,-0.991327,-0.999061,-0.975537,-1.000672,-0.997289,-0.979082,-0.990844,-1.002606,-0.962164,-0.986977,-0.971670,-0.956041,-0.963614,-0.965870,-0.936545,-0.945246,-0.913665,-0.878379,-0.913504,-0.880635,-0.906737,-0.886274,-0.886274,-0.877090,-0.886435,-0.863717,-0.891591,-0.889658,-0.872740,-0.923494,-0.867262,-0.930906,-0.913504,-0.905932,-0.922688,-0.934934,-0.925750,-0.957652,-0.923977,-0.938156,-0.955558,-0.915760,-0.942346,-0.923977,-0.931067,-0.947663,-0.919788,-0.925428,-0.903837,-0.930745,-0.931872,-0.908187,-0.898520,-0.900937,-0.902548,-0.885791,-0.889013,-0.862911,-0.844704,-0.874190,-0.865167,-0.845510,-0.870968,-0.844866,-0.847766,-0.876446,-0.846960,-0.849699,-0.857433,-0.873384,-0.874029,-0.879346,-0.856144,-0.863556,-0.874351,-0.840999,-0.847443,-0.842610,-0.832137,-0.823436,-0.826981,-0.802490,-0.808774,-0.821825,-0.814252,-0.851310,-0.809257,-0.851310,-0.847282,-0.838904,-0.876607,-0.876446,-0.865006,-0.916888,-0.899648,-0.902548,-0.950402,-0.910604,-0.939929,-0.946374,-0.954913,-0.954752,-0.964420,-0.985043,-0.979565,-0.972637,-0.980210,-0.978598,-0.969898,-0.970542,-0.974087,-0.940090,-0.931389,-0.946051,-0.914632,-0.898842,-0.920433,-0.924461,-0.917210,-0.899164,-0.904159,-0.896425,-0.881924,-0.894814,-0.891591,-0.892558,-0.908509,-0.875157,-0.876124,-0.904643,-0.861784,-0.856628,-0.873707,-0.892880,-0.871129,-0.896586,-0.873707,-0.857433,-0.889497,-0.865973,-0.868712,-0.906415,-0.885308,-0.901420,-0.874351,-0.890141,-0.883052,-0.902387,-0.903515,-0.910443,-0.884824,-0.912215,-0.913182,-0.873062,-0.914632,-0.895297,-0.903192,-0.909476,-0.917371,-0.913343,-0.916405,-0.908187,-0.906737,-0.904965,-0.900776,-0.929778,-0.898842,-0.916566,-0.922205,-0.897070,-0.892558,-0.901420,-0.879991,-0.873868,-0.908671,-0.870001,-0.902870,-0.896103,-0.892558,-0.883213,-0.896103,-0.869034,-0.902226,-0.895458,-0.895458,-0.900614,-0.873384,-0.895297,-0.871773,-0.882730,-0.899487,-0.883052,-0.882891,-0.892558,-0.872740,-0.875640,-0.894814,-0.855661,-0.847766,-0.858883,-0.844704,-0.844221,-0.838259,-0.844382,-0.833103,-0.826497,-0.826659,-0.829398,-0.819086,-0.803779,-0.819730,-0.769459,-0.803296,-0.777838,-0.772037,-0.804423,-0.793789,-0.768493,-0.802651,-0.793145,-0.805874,-0.837132,-0.795078,-0.803457,-0.804746,-0.805390,-0.797334,-0.802651,-0.789278,-0.818763,-0.810707,-0.790567,-0.824242,-0.821341,-0.806840,-0.839226,-0.822147,-0.818280,-0.855661,-0.814574,-0.819408,-0.840515,-0.810868,-0.825853,-0.806840,-0.837776,-0.826014,-0.825853,-0.842610,-0.848088,-0.820052,-0.839226,-0.849055,-0.835198,-0.868712,-0.848732,-0.868551,-0.877896,-0.875479,-0.857917,-0.877090,-0.877574,-0.863234,-0.889819,-0.875640,-0.892880,-0.864362,-0.850021,-0.859689,-0.858239,-0.841804,-0.874190,-0.867906,-0.844704,-0.890464,-0.837937,-0.872418,-0.878218,-0.873868,-0.889658,-0.904159,-0.871129,-0.890625,-0.903837,-0.875801,-0.912538,-0.880152,-0.903192,-0.906415,-0.912376,-0.897875,-0.910121,-0.905932,-0.909315,-0.916888,-0.901420,-0.932678,-0.892558,-0.917210,-0.911087,-0.908509,-0.908187,-0.921722,-0.877090,-0.921077,-0.906737,-0.891108,-0.912538,-0.850021,-0.886597,-0.888691,-0.862428,-0.889336,-0.879346,-0.865812,-0.866617,-0.874029,-0.901259,-0.885469,-0.872418,-0.894492,-0.886113,-0.903515,-0.923011,-0.922688,-0.930906,-0.941701,-0.960230,-0.948468,-0.971670,-0.967320,-0.951368,-0.979565,-0.972959,-0.971992,-0.983432,-0.984882,-0.987944,-0.992294,-0.992455,-0.999545,-0.999061,-0.987621,-1.001800,-0.993744,-1.001317,-0.988105,-0.982949,-0.989716,-0.995194,-0.976020,-0.977793,-0.976826,-0.963453,-0.979082,-0.958297,-0.969898,-0.966353,-0.960069,-0.961036,-0.976182,-0.984560,-0.999706,-1.001800,-0.989877,-1.013401,-1.004539,-1.026936,-1.020007,-1.023552,-1.025647,-1.027097,-0.992133,-1.019363,-1.025002,-0.992294,-1.024358,-1.004378,-1.002123,-1.009534,-0.990522,-0.996161,-1.006473,-0.988749,-1.005828,-0.997933,-1.003573,-1.002928,-0.998094,-1.028225,-1.002123,-1.007440,-1.019363,-1.020491,-1.028063,-1.023874,-1.042565,-1.023069,-1.059160,-1.053521,-1.062061,-1.070439,-1.073017,-1.057710,-1.076884,-1.069472,-1.056260,-1.070761,-1.054166,-1.053199,-1.045948,-1.039664,-1.035475,-1.026452,-1.016624,-1.017913,-1.020330,-1.007278,-1.026936,-0.997289,-1.042565,-1.026774,-1.038053,-1.051910,-1.057388,-1.059322,-1.080268,-1.076401,-1.059160,-1.093802,-1.075434,-1.083168,-1.092835,-1.090418,-1.082846,-1.094608,-1.089452,-1.100730,-1.096863,-1.103792,-1.118132,-1.110237,-1.097669,-1.103953,-1.096058,-1.100086,-1.103953,-1.101214,-1.107820,-1.107820,-1.102986,-1.115715,-1.112009,-1.097025,-1.114104,-1.120388,-1.111365,-1.104920,-1.113943,-1.117326,-1.124899,-1.116843,-1.112170,-1.124738,-1.118132,-1.121354,-1.109431,-1.123127,-1.119421,-1.104114,-1.108142,-1.126349,-1.095574,-1.103469,-1.112654,-1.078012,-1.113620,-1.093158,-1.107820,-1.095413,-1.108142,-1.093158,-1.098152,-1.088646,-1.092835,-1.105242,-1.090257,-1.103147,-1.087357,-1.109109,-1.083168,-1.090257,-1.084135,-1.083329,-1.069795,-1.072050,-1.095736,-1.074467,-1.109431,-1.101214,-1.067217,-1.104275,-1.111526,-1.111203,-1.134244,-1.131988,-1.128766,-1.153579,-1.132955,-1.148423,-1.156479,-1.155029,-1.155996,-1.156640,-1.142139,-1.134728,-1.121999,-1.122804,-1.153418,-1.106047,-1.130055,-1.110881,-1.110237,-1.104597,-1.105564,-1.104920,-1.111203,-1.106853,-1.088485,-1.110720,-1.085101,-1.110881,-1.089774,-1.095413,-1.106047,-1.101214,-1.066733,-1.102180,-1.078818,-1.041276,-1.102342,-1.067055,-1.074306,-1.083007,-1.060933,-1.048365,-1.072211,-1.032736,-1.036925,-1.024196,-1.052393,-1.054810,-1.039987,-1.057710,-1.044176,-1.058999,-1.086068,-1.087840,-1.100892,-1.113459,-1.116843,-1.131666,-1.140206,-1.124093,-1.149712,-1.157124,-1.143750,-1.137628,-1.157124,-1.141495,-1.155029,-1.164535,-1.157768,-1.165019,-1.154224,-1.151001,-1.160024,-1.152290,-1.159057,-1.157929,-1.145845,-1.162602,-1.164213,-1.171464,-1.172753,-1.158091,-1.155513,-1.162602,-1.144395,-1.166952,-1.169853,-1.146167,-1.169047,-1.178553,-1.153418,-1.159218,-1.173075,-1.150679,-1.168725,-1.162280,-1.146167,-1.164535,-1.155674,-1.128766,-1.160507,-1.146651,-1.144717,-1.150357,-1.137789,-1.159218,-1.143912,-1.152612,-1.156157,-1.143267,-1.160185,-1.157285,-1.158735,-1.150195,-1.153740,-1.156318,-1.180165,-1.176781,-1.170658,-1.177748,-1.184193,-1.169047,-1.175331,-1.176942,-1.179198,-1.206428,-1.170014,-1.179037,-1.175975,-1.185159,-1.179681,-1.179359,-1.180809,-1.187737,-1.173720,-1.176459,-1.186932,-1.150840,-1.180487,-1.179037,-1.181131,-1.198049,-1.179520,-1.180003,-1.200305,-1.187415,-1.183387,-1.194666,-1.167275,-1.193377,-1.188382,-1.196438,-1.187898,-1.196277,-1.178876,-1.189671,-1.207072,-1.189832,-1.198694,-1.185804,-1.191443,-1.190799,-1.190315,-1.207072,-1.181776,-1.199177,-1.186932,-1.199016,-1.169691,-1.193377,-1.198694,-1.168725,-1.210295,-1.178231,-1.192410,-1.185965,-1.177748,-1.181937,-1.195794,-1.181292,-1.180809,-1.187737,-1.172269,-1.176942,-1.165986,-1.159863,-1.152129,-1.167597,-1.149712,-1.157929,-1.144556,-1.139239,-1.171625,-1.126510,-1.146006,-1.124738,-1.152129,-1.146973,-1.125705,-1.150034,-1.162280,-1.136983,-1.148745,-1.177264,-1.139239,-1.177425,-1.180809,-1.162924,-1.191282,-1.169369,-1.173397,-1.194827,-1.181615,-1.167758,-1.181453,-1.160507,-1.187576,-1.171625,-1.183226,-1.168886,-1.178070,-1.173558,-1.173075,-1.157929,-1.167919,-1.185965,-1.157446,-1.174525,-1.184515,-1.170658,-1.163246,-1.174847,-1.155190,-1.173881,-1.167436,-1.141172,-1.200466,-1.155674,-1.164858,-1.165986,-1.168402,-1.175653,-1.184676,-1.183226,-1.186609,-1.178714,-1.178553,-1.197405,-1.177909,-1.183065,-1.198694,-1.197566,-1.195149,-1.220768,-1.197083,-1.218029,-1.218512,-1.198049,-1.219157,-1.199822,-1.205139,-1.210134,-1.204978,-1.218351,-1.201272,-1.208200,-1.207717,-1.206911,-1.204172,-1.227535,-1.198210,-1.178876,-1.200949,-1.184998,-1.195794,-1.181131,-1.189671,-1.171142,-1.155351,-1.151646,-1.165180,-1.127960,-1.120065,-1.132955,-1.092352,-1.078979,-1.055938,-1.028708,-1.004378,-0.984399,-0.934612,-0.952174,-0.888208,-0.842126,-0.800556,-0.759792,-0.736429,-0.643138,-0.614297,-0.568216,-0.495549,-0.432871,-0.409508,-0.316056,-0.264336,-0.229049,-0.129475,-0.095961,-0.049396,0.026494,0.075637,0.122040,0.171828,0.255452,0.271242,0.337625,0.367272,0.402075,0.418832,0.439939,0.457985,0.467331,0.486988,0.500522,0.506484,0.511479,0.520824,0.517279,0.518085,0.514057,0.496172,0.487793,0.483765,0.434944,0.428177,0.401753,0.331502,0.325057,0.246106,0.222904,0.177790,0.107539,0.036000,-0.011693,-0.089032,-0.128186,-0.218415,-0.332974,-0.374706,-0.472830,-0.548236,-0.646522,-0.728534,-0.822308,-0.896586,-0.993261,-1.046915,-1.121193,-1.191765,-1.170980,-1.193377,-1.192249,-1.188865,-1.185482,-1.189349,-1.163891,-1.192732,-1.182259,-1.180970,-1.191927,-1.161796,-1.188704,-1.180648,-1.177748,-1.192088,-1.192088,-1.185159,-1.193699,-1.187576,-1.191121,-1.196921,-1.196277,-1.206911,-1.212389,-1.220768,-1.220768,-1.234624,-1.201433,-1.191282,-1.188221,-1.191927,-1.224151,-1.224635,-1.236558,-1.197244,-1.201433,-1.214806,-1.227857,-1.220284,-1.212550,-1.208522,-1.219801,-1.244775,-1.192249,-1.218512,-1.222379,-1.211423,-1.211423,-1.216740,-1.225763,-1.216740,-1.211745,-1.236719,-1.219318,-1.207878,-1.236558,-1.219801,-1.220929,-1.222057,-1.210939,-1.220123,-1.196760,-1.220123,-1.217706,-1.224635,-1.217545,-1.203527,-1.230274,-1.206911,-1.224957,-1.229630,-1.202238,-1.228502,-1.219479,-1.227857,-1.218190,-1.210134,-1.205461,-1.229146,-1.191927,-1.215451,-1.213356,-1.209972,-1.195794,-1.221734,-1.195955,-1.201272,-1.197727,-1.189510,-1.212550,-1.176136,-1.189349,-1.194666,-1.193860,-1.193054,-1.204816,-1.177425,-1.184193,-1.199499,-1.191282,-1.200305,-1.193377,-1.196116,-1.194827,-1.180970,-1.186609,-1.193860,-1.160185,-1.186609,-1.191282,-1.179681,-1.203689,-1.164374,-1.196599,-1.189349,-1.168241,-1.175170,-1.186448,-1.151162,-1.162602,-1.184837,-1.160024,-1.173881,-1.170497,-1.169853,-1.163569,-1.167436,-1.150679,-1.170819,-1.148101,-1.123771,-1.175331,-1.142139,-1.138756,-1.146167,-1.134889,-1.134083,-1.132150,-1.118776,-1.120871,-1.116198,-1.099441,-1.130216,-1.092835,-1.110881,-1.102664,-1.112976,-1.102986,-1.115232,-1.106853,-1.137789,-1.090096,-1.102825,-1.147456,-1.113298,-1.136500,-1.115876,-1.130699,-1.127155,-1.121354,-1.145039,-1.137950,-1.140528,-1.148745,-1.164697,-1.135694,-1.152612,-1.154868,-1.146490,-1.156318,-1.156963,-1.156963,-1.167758,-1.141172,-1.135372,-1.173558,-1.134405,-1.146167,-1.162280,-1.157607,-1.158574,-1.153579,-1.142461,-1.156318,-1.167758,-1.171786,-1.174203,-1.149551,-1.156802,-1.153418,-1.166791,-1.171464,-1.158574,-1.164374,-1.157285,-1.156640,-1.156963,-1.159863,-1.155996,-1.158413,-1.181453,-1.154062,-1.165824,-1.169208,-1.149390,-1.151807,-1.173881,-1.145684,-1.170980,-1.161474,-1.141334,-1.172269,-1.158574,-1.153418,-1.151323,-1.159218,-1.163730,-1.154868,-1.164535,-1.177587,-1.161474,-1.162119,-1.172753,-1.162119,-1.160991,-1.167275,-1.169208,-1.156479,-1.158574,-1.161313,-1.160024,-1.168080,-1.163730,-1.160346,-1.158252,-1.159702,-1.166147,-1.155674,-1.161474,-1.170819,-1.146328,-1.171947,-1.174525,-1.146490,-1.161313,-1.146812,-1.159218,-1.161474,-1.164535,-1.156640,-1.157929,-1.152935,-1.146490,-1.159057,-1.157929,-1.167597,-1.157124,-1.169853,-1.165180,-1.180003,-1.163569,-1.175653,-1.156963,-1.163246,-1.190799,-1.155674,-1.179681,-1.190799,-1.163085,-1.175009,-1.200788,-1.163730,-1.178231,-1.169691,-1.158574,-1.187093,-1.154707,-1.188704,-1.171947,-1.170497,-1.181292,-1.166308,-1.166308,-1.181292,-1.165986,-1.168402,-1.184193,-1.159702,-1.191765,-1.167919,-1.162441,-1.167597,-1.177909,-1.168886,-1.177587,-1.185965,-1.167113,-1.188704,-1.160024,-1.176781,-1.180326,-1.162602,-1.175009,-1.185965,-1.156157,-1.169853,-1.158735,-1.157768,-1.187254,-1.133922,-1.171947,-1.136983,-1.135533,-1.144717,-1.162602,-1.138595,-1.153901,-1.146812,-1.127799,-1.143428,-1.136822,-1.170497,-1.145039,-1.166469,-1.171464,-1.169208,-1.172431,-1.170014,-1.173397,-1.168402,-1.176136,-1.165502,-1.178553,-1.174525,-1.160507,-1.162602,-1.173881,-1.153096,-1.176459,-1.186448,-1.144556,-1.174686,-1.147940,-1.160830,-1.168725,-1.161474,-1.177103,-1.174364,-1.141172,-1.172269,-1.142461,-1.159218,-1.176136,-1.146490,-1.151807,-1.159541,-1.133277,-1.150840,-1.142784,-1.127316,-1.162119,-1.160185,-1.155351,-1.159380,-1.155996,-1.154224,-1.157607,-1.152451,-1.156640,-1.168886,-1.153579,