-1.222057,-1.236236,-1.182098,-1.229307,-1.223668,-1.21529,-1.219962,-1.218834,-1.222862,-1.226729,-1.212712,-1.201433,-1.217706,-1.22254,-1.226085,-1.210295,-1.206105,-1.227213,-1.221412,-1.206267,-1.224957,-1.210778,-1.176136,-1.226085,-1.203689,-1.212228,-1.21529,-1.201916,-1.208361,-1.208845,-1.20675,-1.222218,-1.205461,-1.194343,-1.223185,-1.194505,-1.226085,-1.213356,-1.210456,-1.21674,-1.2053,-1.200949,-1.225279,-1.2053,-1.206589,-1.229146,-1.181776,-1.218351,-1.211423,-1.199822,-1.199822,-1.219801,-1.207878,-1.224474,-1.230919,-1.195794,-1.224312,-1.191927,-1.22399,-1.212228,-1.219962,-1.233174,-1.220445,-1.209489,-1.211745,-1.22254,-1.208683,-1.239942,-1.194988,-1.225118,-1.214001,-1.21529,-1.234624,-1.226729,-1.198049,-1.212228,-1.21674,-1.237202,-1.236719,-1.207717,-1.225118,-1.21964,-1.225279,-1.236558,-1.225924,-1.226407,-1.218673,-1.204172,-1.227213,-1.232369,-1.203689,-1.232369,-1.215128,-1.217545,-1.219318,-1.225763,-1.207878,-1.228018,-1.223668,-1.199661,-1.228985,-1.218673,-1.217062,-1.213195,-1.233658,-1.222057,-1.222862,-1.208039,-1.221412,-1.227535,-1.202561,-1.233497,-1.21964,-1.209972,-1.229952,-1.201916,-1.220123,-1.216579,-1.201755,-1.219962,-1.238975,-1.210617,-1.234786,-1.215773,-1.22399,-1.210456,-1.215128,-1.217062,-1.20965,-1.219801,-1.230435,-1.215773,-1.233658,-1.227374,-1.194666,-1.22109,-1.216417,-1.202561,-1.21674,-1.229952,-1.217062,-1.22254,-1.237364,-1.223023,-1.219801,-1.204172,-1.21819,-1.211423,-1.222057,-1.222057,-1.220284,-1.22399,-1.212873,-1.214323,-1.203205,-1.23108,-1.207233,-1.227052,-1.209006,-1.193699,-1.209006,-1.216579,-1.198694,-1.206267,-1.21529,-1.215773,-1.211423,-1.209972,-1.206911,-1.226568,-1.2024,-1.223507,-1.21255,-1.200627,-1.224957,-1.2082,-1.212712,-1.239136,-1.217062,-1.203689,-1.232208,-1.208845,-1.222862,-1.207394,-1.214484,-1.230919,-1.209167,-1.212067,-1.221734,-1.209972,-1.213356,-1.221734,-1.204172,-1.227213,-1.214162,-1.20965,-1.214806,-1.23108,-1.209972,-1.218673,-1.228824,-1.204011,-1.220929,-1.203366,-1.206911,-1.220768,-1.207394,-1.2111,-1.233013,-1.213034,-1.210456,-1.233174,-1.205139,-1.222379,-1.213839,-1.215451,-1.219801,-1.215934,-1.220445,-1.204816,-1.203044,-1.214484,-1.224796,-1.209972,-1.225601,-1.195794,-1.214484,-1.199016,-1.202238,-1.209489,-1.203527,-1.206267,-1.191765,-1.223185,-1.205622,-1.209006,-1.209006,-1.214806,-1.210778,-1.21255,-1.186287,-1.216417,-1.220607,-1.201272,-1.241069,-1.21964,-1.221896,-1.221412,-1.217384,-1.215612,-1.214806,-1.199661,-1.225924,-1.192571,-1.213195,-1.228341,-1.19386,-1.225924,-1.22544,-1.227374,-1.229307,-1.220607,-1.213034,-1.220445,-1.206428,-1.211906,-1.219157,-1.189349,-1.221251,-1.196116,-1.233335,-1.224151,-1.226729,-1.231241,-1.226407,-1.213517,-1.222379,-1.226085,-1.195632,-1.216579,-1.215773,-1.218673,-1.209006,-1.238169,-1.213517,-1.223346,-1.232691,-1.203366,-1.231241,-1.21255,-1.210778,-1.225763,-1.218512,-1.213678,-1.214001,-1.2024,-1.223023,-1.215934,-1.202077,-1.239297,-1.204655,-1.236719,-1.227857,-1.214001,-1.222379,-1.22254,-1.221896,-1.238653,-1.219157,-1.209972,-1.237364,-1.205622,-1.228341,-1.209006,-1.228502,-1.212712,-1.210778,-1.218834,-1.217545,-1.205783,-1.210617,-1.234786,-1.195149,-1.218995,-1.218029,-1.2082,-1.21529,-1.216579,-1.199822,-1.218351,-1.22109,-1.205622,-1.236075,-1.193538,-1.21529,-1.213839,-1.215773,-1.19531,-1.214484,-1.205461,-1.215128,-1.216901,-1.194505,-1.238814,-1.176136,-1.218029,-1.213839,-1.215612,-1.209167,-1.216095,-1.205622,-1.225763,-1.202238,-1.201272,-1.218995,-1.177264,-1.207717,-1.204333,-1.228341,-1.201594,-1.220768,-1.206428,-1.210939,-1.213195,-1.193054,-1.204172,-1.192571,-1.194988,-1.199177,-1.193216,-1.194666,-1.200788,-1.189026,-1.201755,-1.183226,-1.17372,-1.192088,-1.170819,-1.19241,-1.180326,-1.155674,-1.15664,-1.161313,-1.148101,-1.162441,-1.136822,-1.126027,-1.170175,-1.102664,-1.149551,-1.139884,-1.141978,-1.146651,-1.144234,-1.135372,-1.145845,-1.132311,-1.137467,-1.149873,-1.111203,-1.148906,-1.128605,-1.142139,-1.109431,-1.130377,-1.122804,-1.123771,-1.137628,-1.116521,-1.140528,-1.122482,-1.14939,-1.147295,-1.138756,-1.141495,-1.139884,-1.125543,-1.143267,-1.133922,-1.126671,-1.155029,-1.10637,-1.149551,-1.154868,-1.145201,-1.132472,-1.155674,-1.138756,-1.145039,-1.14085,-1.129088,-1.172108,-1.119904,-1.1423,-1.136017,-1.14649,-1.145845,-1.152773,-1.147134,-1.171142,-1.151968,-1.156157,-1.176942,-1.140206,-1.155513,-1.142623,-1.140206,-1.143267,-1.147456,-1.150679,-1.146328,-1.156479,-1.115393,-1.120065,-1.105886,-1.126832,-1.113781,-1.109753,-1.087518,-1.095091,-1.053038,-1.084457,-1.087679,-1.057227,-1.057066,-1.023552,-1.022908,-1.027902,-1.0047,-0.989716,-1.01034,-1.003089,-0.985688,-0.97457,-0.988105,-0.996,-0.949757,-0.972476,-0.965064,-0.942507,-0.950563,-0.945246,-0.936545,-0.969575,-0.95878,-0.957491,-0.952496,-0.936384,-0.957652,-0.936706,-0.947501,-0.93445,-0.959586,-0.940412,-0.924461,-0.934934,-0.951046,-0.916727,-0.916243,-0.91431,-0.929133,-0.917532,-0.903676,-0.917532,-0.910765,-0.918499,-0.926555,-0.911087,-0.910765,-0.893364,-0.896747,-0.89997,-0.894169,-0.913504,-0.886435,-0.886435,-0.895136,-0.875157,-0.872095,-0.891591,-0.867745,-0.889819,-0.864845,-0.845671,-0.847927,-0.870323,-0.838743,-0.844543,-0.838259,-0.83117,-0.845671,-0.820375,-0.807807,-0.816185,-0.808451,-0.806518,-0.817636,-0.83262,-0.80539,-0.826175,-0.847121,-0.824725,-0.812963,-0.834715,-0.803618,-0.800718,-0.818602,-0.806035,-0.792661,-0.814252,-0.798784,-0.771071,-0.819408,-0.790406,-0.793145,-0.796367,-0.7867,-0.775099,-0.795239,-0.778805,-0.776871,-0.796367,-0.756892,-0.788311,-0.754958,-0.797817,-0.778805,-0.759953,-0.769621,-0.765431,-0.760437,-0.774938,-0.73804,-0.739329,-0.761887,-0.730306,-0.725312,-0.726278,-0.710488,-0.70791,-0.703399,-0.692442,-0.688414,-0.688736,-0.671657,-0.69212,-0.66199,-0.648939,-0.683258,-0.64475,-0.663118,-0.665857,-0.667951,-0.657317,-0.698082,-0.677619,-0.67778,-0.695987,-0.67069,-0.70501,-0.696793,-0.688575,-0.724828,-0.690186,-0.698404,-0.717094,-0.71645,-0.754153,-0.703721,-0.722411,-0.753669,-0.70936,-0.74513,-0.762853,-0.718061,-0.74803,-0.740779,-0.73369,-0.730951,-0.740779,-0.749641,-0.746258,-0.719189,-0.744969,-0.719189,-0.730629,-0.723056,-0.70211,-0.720317,-0.731595,-0.699371,-0.679875,-0.695504,-0.688253,-0.681486,-0.681969,-0.691153,-0.665696,-0.676813,-0.661829,-0.672463,-0.656834,-0.678424,-0.673107,-0.660056,-0.681002,-0.682291,-0.641366,-0.666824,-0.686803,-0.651033,-0.691637,-0.662473,-0.6549,-0.704043,-0.680197,-0.668113,-0.675041,-0.67923,-0.671496,-0.669724,-0.657478,-0.672463,-0.675041,-0.664568,-0.692926,-0.649261,-0.667468,-0.667951,-0.651033,-0.68777,-0.690348,-0.645716,-0.663762,-0.698726,-0.652161,-0.677941,-0.662151,-0.671657,-0.685836,-0.681164,-0.656189,-0.68632,-0.679069,-0.648616,-0.71645,-0.662473,-0.679713,-0.695826,-0.67488,-0.672463,-0.675685,-0.684064,-0.670368,-0.66924,-0.683419,-0.694537,-0.637338,-0.668596,-0.629926,-0.654095,-0.662957,-0.6462,-0.620581,-0.630893,-0.620259,-0.635565,-0.67069,-0.592545,-0.628315,-0.633632,-0.63766,-0.630409,-0.6462,-0.612525,-0.632665,-0.618164,-0.600602,-0.625737,-0.597379,-0.641205,-0.630248,-0.624931,-0.608497,-0.610752,-0.593512,-0.60463,-0.597701,-0.59899,-0.634921,-0.566121,-0.603824,-0.626059,-0.59464,-0.60044,-0.598829,-0.623803,-0.608497,-0.614297,-0.614297,-0.63331,-0.62187,-0.632665,-0.63621,-0.640721,-0.657478,-0.670529,-0.685675,-0.717416,-0.703399,-0.712744,-0.752219,-0.727245,-0.768332,-0.762048,-0.753669,-0.78815,-0.770748,-0.770587,-0.769782,-0.790889,-0.770104,-0.753992,-0.740296,-0.736751,-0.729662,-0.714516,-0.678424,-0.683903,-0.66199,-0.612202,-0.611719,-0.59319,-0.559515,-0.545014,-0.514722,-0.486687,-0.464613,-0.436738,-0.407897,-0.347637,-0.325724,-0.291727,-0.230016,-0.235172,-0.149454,-0.11739,-0.083393,-0.037473,0.04454,0.095455,0.182623,0.208403,0.276237,0.325057,0.380645,0.420927,0.454441,0.491338,0.536453,0.57609,0.618788,0.662614,0.703217,0.741565,0.777335,0.810043,0.841624,0.870304,0.896245,0.921542,0.945711,0.966013,0.986798,1.007261,1.020634,1.041258,1.053343,1.065749,1.082184,1.083957,1.102969,1.108931,1.121177,1.135195,1.140834,1.146635,1.16033,1.160652,1.17322,1.183855,1.180149,1.194972,1.193683,1.188527,1.174348,1.145829,1.108287,1.080734,1.00291,0.925087,0.893506,0.766378,0.708535,0.619271,0.531458,0.409164,0.343587,0.195997,0.118335,0.030522,-0.116424,-0.195697,-0.311545,-0.40258,-0.485237,-0.569827,-0.670046,-0.731273,-0.80684,-0.846799,-0.904481,-0.934934,-0.921399,-0.944279,-0.962486,-0.970703,-0.974409,-0.972798,-0.975376,-1.009534,-1.005184,-1.004217,-1.020974,-1.009051,-1.018879,-1.029836,-1.029675,-1.035636,-1.05481,-1.028708,-1.055777,-1.071406,-1.049654,-1.057066,-1.069795,-1.083168,-1.085101,-1.097025,-1.096058,-1.105242,-1.103631,-1.116359,-1.104114,-1.102503,-1.105081,-1.093963,-1.088968,-1.099603,-1.120871,-1.131505,-1.126188,-1.116521,-1.108948,-1.098797,-1.130699,-1.146651,-1.11781,-1.128766,-1.122804,-1.106047,-1.121838,-1.146651,-1.132794,-1.139078,-1.132955,-1.111203,-1.12651,-1.130538,-1.15229,-1.137467,-1.151001,-1.140528,-1.12216,-1.121999,-1.129894,-1.141172,-1.153418,-1.149068,-1.130699,-1.136822,-1.133277,-1.130055,-1.138272,-1.137628,-1.144717,-1.158896,-1.14794,-1.129088,-1.155513,-1.1365,-1.137144,-1.132794,-1.14375,-1.149068,-1.160507,-1.145684,-1.150679,-1.13795,-1.139884,-1.142784,-1.131505,-1.141495,-1.134083,-1.150034,-1.162602,-1.158252,-1.147295,-1.155674,-1.149068,-1.141656,-1.139884,-1.129733,-1.141011,-1.125382,-1.146328,-1.151001,-1.145523,-1.151807,-1.159541,-1.144878,-1.142784,-1.155513,-1.134728,-1.14939,-1.147779,-1.144717,-1.145039,-1.137628,-1.135211,-1.139884,-1.143912,-1.128444,-1.155835,-1.139722,-1.15519,-1.145684,-1.14085,-1.15084,-1.149068,-1.144556,-1.165502,-1.151484,-1.143106,-1.166952,-1.144395,-1.150679,-1.156479,-1.15938,-1.148745,-1.157446,-1.157446,-1.156318,-1.151484,-1.160991,-1.165663,-1.132472,-1.15664,-1.149873,-1.14649,-1.14375,-1.140045,-1.139078,-1.128605,-1.143428,-1.138756,-1.151162,-1.129733,-1.145039,-1.141172,-1.155351,-1.13795,-1.136661,-1.136822,-1.130861,-1.133761,-1.133116,-1.135211,-1.123771,-1.136822,-1.122643,-1.12071,-1.139561,-1.112009,-1.119421,-1.131505,-1.121193,-1.108142,-1.139884,-1.103469,-1.111042,-1.119421,-1.115554,-1.11217,-1.118293,-1.126994,-1.121676,-1.106853,-1.121676,-1.115876,-1.094447,-1.100569,-1.096058,-1.083007,-1.061416,-1.068667,-1.048687,-1.038537,-1.03757,-1.04627,-1.030158,-1.034992,-1.006473,-1.02468,-0.986977,-0.991811,-0.994872,-0.987944,-0.991811,-0.995516,-0.963775,-0.990199,-0.945246,-0.987621,-0.983916,-0.953785,-0.963453,-0.953141,-0.937834,-0.961519,-0.958136,-0.938156,-0.957491,-0.929617,-0.926233,-0.951852,-0.923977,-0.942184,-0.936223,-0.918016,-0.925911,-0.950724,-0.917855,-0.936384,-0.952174,-0.906898,-0.943957,-0.937673,-0.922688,-0.946212,-0.913827,-0.925589,-0.92011,-0.912538,-0.916566,-0.930906,-0.896103,-0.939768,-0.905287,-0.917694,-0.911893,-0.926716,-0.911732,-0.913021,-0.901098,-0.921883,-0.918983,-0.889013,-0.900776,-0.882891,-0.91286,-0.886758,-0.888047,-0.885469,-0.881763,-0.890786,-0.871612,-0.891591,-0.867423,-0.881602,-0.862589,-0.893525,-0.857433,-0.860978,-0.860495,-0.874029,-0.841482,-0.85131,-0.894653,-0.827947,-0.860172,-0.856305,-0.848249,-0.847121,-0.841643,-0.834392,-0.849216,-0.831492,-0.81973,-0.846799,-0.822792,-0.853083,-0.828592,-0.834392,-0.832137,-0.826497,-0.832942,-0.823436,-0.79959,-0.803296,-0.832781,-0.780577,-0.797495,-0.806679,-0.784927,-0.778482,-0.782994,-0.778805,-0.748997,-0.755925,-0.739329,-0.771393,-0.733207,-0.744969,-0.732079,-0.737879,-0.735946,-0.721767,-0.714033,-0.730306,-0.711938,-0.725473,-0.720639,-0.682453,-0.720317,-0.719028,-0.680519,-0.712099,-0.726601,-0.690831,-0.721767,-0.715644,-0.691798,-0.715483,-0.684225,-0.691314,-0.695826,-0.681325,-0.709844,-0.690992,-0.681808,-0.694053,-0.698565,-0.711938,-0.708877,-0.702915,-0.69067,-0.699532,-0.687931,-0.698565,-0.684386,-0.670529,-0.662473,-0.671496,-0.667146,-0.674719,-0.672302,-0.670529,-0.671657,-0.651517,-0.67923,-0.669724,-0.655706,-0.66634,-0.656512,-0.641849,-0.662634,-0.619292,-0.635404,-0.659573,-0.611236,-0.639594,-0.641849,-0.627509,-0.618809,-0.648455,-0.63621,-0.60898,-0.639271,-0.62477,-0.629926,-0.62042,-0.635727,-0.618647,-0.618164,-0.625737,-0.616231,-0.612202,-0.622192,-0.603985,-0.622837,-0.623642,-0.584167,-0.593029,-0.608819,-0.578205,-0.574016,-0.582233,-0.561126,-0.575144,-0.571599,-0.558065,-0.594801,-0.570955,-0.548075,-0.561932,-0.546625,-0.568216,-0.5774,-0.547592,-0.533252,-0.577561,-0.536152,-0.543241,-0.544208,-0.558387,-0.535346,-0.566282,-0.538085,-0.547753,-0.536635,-0.554842,-0.553231,-0.54872,-0.567571,-0.531802,-0.525195,-0.53583,-0.56161,-0.529385,-0.559193,-0.530513,-0.511339,-0.552425,-0.513595,-0.529385,-0.523584,-0.534218,-0.541952,-0.532285,-0.536796,-0.561932,-0.522779,-0.513756,-0.574016,-0.516495,-0.543241,-0.543241,-0.518751,-0.55017,-0.539052,-0.55452,-0.55887,-0.556292,-0.55162,-0.559837,-0.535346,-0.612686,-0.563543,-0.555003,-0.558548,-0.559676,-0.55597,-0.571438,-0.556454,-0.528257,-0.581589,-0.533574,-0.550009,-0.535024,-0.563221,-0.556131,-0.548075,-0.56596,-0.569021,-0.567732,-0.593673,-0.571599,-0.561287,-0.579172,-0.58465,-0.585456,-0.607691,-0.593512,-0.601568,-0.620581,-0.616392,-0.625092,-0.642494,-0.621225,-0.64056,-0.6462,-0.620098,-0.634921,-0.649583,-0.635404,-0.652645,-0.655545,-0.648133,-0.684708,-0.662957,-0.660217,-0.688575,-0.67069,-0.687609,-0.680519,-0.696309,-0.705816,-0.715322,-0.705977,-0.722734,-0.746097,-0.730145,-0.745935,-0.746097,-0.787667,-0.767365,-0.774454,-0.77816,-0.793467,-0.795239,-0.81393,-0.81393,-0.828753,-0.843415,-0.849216,-0.860656,-0.848894,-0.854533,-0.862106,-0.875479,-0.852438,-0.870645,-0.889819,-0.865167,-0.888691,-0.891914,-0.891269,-0.910765,-0.893525,-0.918338,-0.938317,-0.92285,-0.936706,-0.943957,-0.929778,-0.962647,-0.959264,-0.966031,-0.991005,-0.990683,-0.988427,-1.012918,-1.012596,-1.033219,-1.045304,-1.056421,-1.059322,-1.062061,-1.084618,-1.081073,-1.091546,-1.102664,-1.092835,-1.099925,-1.114104,-1.102019,-1.111365,-1.11072,-1.103308,-1.110237,-1.12216,-1.132633,-1.14085,-1.146651,-1.135533,-1.141172,-1.149229,-1.127477,-1.138595,-1.125543,-1.148101,-1.149873,-1.170014,-1.159218,-1.156479,-1.144556,-1.152935,-1.156318,-1.138272,-1.164052,-1.156479,-1.174847,-1.170658,-1.165986,-1.179681,-1.18951,-1.162924,-1.177587,-1.177748,-1.171786,-1.18951,-1.171142,-1.177264,-1.185643,-1.19096,-1.184837,-1.188221,-1.181615,-1.175331,-1.173236,-1.173558,-1.166791,-1.164052,-1.181453,-1.178231,-1.17662,-1.189349,-1.188221,-1.172108,-1.180003,-1.182259,-1.161957,-1.192088,-1.183226,-1.171464,-1.171625,-1.182904,-1.177425,-1.170336,-1.16808,-1.18242,-1.189993,-1.151162,-1.186448,-1.174042,-1.181615,-1.171303,-1.172914,-1.179359,-1.174042,-1.167758,-1.182098,-1.166952,-1.167113,-1.169691,-1.161957,-1.173075,-1.158896,-1.163891,-1.162441,-1.158252,-1.151646,-1.167436,-1.155835,-1.146651,-1.163246,-1.14649,-1.154868,-1.139078,-1.135372,-1.138272,-1.140045,-1.130055,-1.111203,-1.117004,-1.107336,-1.103792,-1.090902,-1.090741,-1.080751,-1.07769,-1.069795,-1.048043,-1.034186,-1.053199,-1.025485,-1.031286,-1.033219,-1.007762,-1.010823,-1.018879,-0.998739,-0.992777,-1.012596,-0.960553,-0.995355,-0.986171,-0.968609,-0.978437,-0.945085,-0.954913,-0.949435,-0.957652,-0.975698,-0.951852,-0.953463,-0.953141,-0.951207,-0.934612,-0.956524,-0.938962,-0.949757,-0.943957,-0.923333,-0.932034,-0.947179,-0.923011,-0.923011,-0.944924,-0.905287,-0.943796,-0.931389,-0.927844,-0.928005,-0.931872,-0.911249,-0.931389,-0.935256,-0.92575,-0.956847,-0.898681,-0.961842,-0.896425,-0.931228,-0.926716,-0.905609,-0.940895,-0.925105,-0.918016,-0.925266,-0.937512,-0.909476,-0.937351,-0.929617,-0.917694,-0.923977,-0.940734,-0.918338,-0.932195,-0.90577,-0.907382,-0.942829,-0.920916,-0.95733,-0.959264,-0.949113,-0.932195,-0.978921,-0.93155,-0.950402,-0.946212,-0.931711,-0.946374,-0.921238,-0.949435,-0.932356,-0.918177,-0.927361,-0.938962,-0.929778,-0.928972,-0.92865,-0.923172,-0.946857,-0.896425,-0.957813,-0.913988,-0.913988,-0.923172,-0.920594,-0.907382,-0.935739,-0.921722,-0.906737,-0.919949,-0.905287,-0.935901,-0.898036,-0.914471,-0.917855,-0.925266,-0.921883,-0.933161,-0.914793,-0.920916,-0.94444,-0.913343,-0.917049,-0.9301,-0.90996,-0.886274,-0.913021,-0.906898,-0.909476,-0.883535,-0.900292,-0.913665,-0.882569,-0.91866,-0.896103,-0.903837,-0.907382,-0.909315,-0.89143,-0.903837,-0.895136,-0.881118,-0.918499,-0.882246,-0.903515,-0.900292,-0.93155,-0.896747,-0.890625,-0.900614,-0.916243,-0.868067,-0.883858,-0.897231,-0.8555,-0.894008,-0.881602,-0.873223,-0.882407,-0.868228,-0.853888,-0.889336,-0.844866,-0.850666,-0.883052,-0.829881,-0.840032,-0.835037,-0.850344,-0.826497,-0.844221,-0.837615,-0.824564,-0.852277,-0.841643,-0.837454,-0.82118,-0.866778,-0.816508,-0.827464,-0.839548,-0.849055,-0.827625,-0.844704,-0.81973,-0.837293,-0.85695,-0.824886,-0.839871,-0.81683,-0.818602,-0.828914,-0.838582,-0.811513,-0.809902,-0.831331,-0.829559,-0.814413,-0.802812,-0.825531,-0.798945,-0.813285,-0.824725,-0.816185,-0.836648,-0.816669,-0.798301,-0.815702,-0.820536,-0.799267,-0.827142,-0.80829,-0.829236,-0.810868,-0.821664,-0.800718,-0.837615,-0.813446,-0.816669,-0.830042,-0.822953,-0.846477,-0.799429,-0.835843,-0.809902,-0.808935,-0.813285,-0.824403,-0.809579,-0.802973,-0.837132,-0.773488,-0.819891,-0.80249,-0.801684,-0.823114,-0.819086,-0.794111,-0.824403,-0.81393,-0.786861,-0.835037,-0.778805,-0.819891,-0.811352,-0.810385,-0.805068,-0.805229,-0.775421,-0.811352,-0.799912,-0.773971,-0.786378,-0.782027,-0.785733,-0.761081,-0.77961,-0.764948,-0.77381,-0.77526,-0.761726,-0.752058,-0.761242,-0.772199,-0.719028,-0.752703,-0.76237,-0.726278,-0.739329,-0.733207,-0.718867,-0.726278,-0.732562,-0.728212,-0.754958,-0.729178,-0.74223,-0.721122,-0.698404,-0.728695,-0.721767,-0.69357,-0.724023,-0.716933,-0.695826,-0.712905,-0.695342,-0.693248,-0.685675,-0.663762,-0.67343,-0.673913,-0.671013,-0.680197,-0.647166,-0.656834,-0.656512,-0.622837,-0.651356,-0.623642,-0.605274,-0.635404,-0.651033,-0.618647,-0.629926,-0.629282,-0.622676,-0.630409,-0.636049,-0.637982,-0.630248,-0.629604,-0.636693,-0.640883,-0.651517,-0.653128,-0.665696,-0.657156,-0.669724,-0.664407,-0.667951,-0.673107,-0.662634,-0.671979,-0.718383,-0.685192,-0.684225,-0.681325,-0.655223,-0.683097,-0.656028,-0.664729,-0.63621,-0.641849,-0.640077,-0.614136,-0.621064,-0.620742,-0.61333,-0.630087,-0.612202,-0.600763,-0.627187,-0.628154,-0.582072,-0.615747,-0.611236,-0.593834,-0.610269,-0.610913,-0.619936,-0.608658,-0.634438,-0.616231,-0.640238,-0.619614,-0.607208,-0.626381,-0.633471,-0.628154,-0.627187,-0.615586,-0.639916,-0.593351,-0.608335,-0.647811,-0.610913,-0.632182,-0.650067,-0.61897,-0.640077,-0.647489,-0.615264,-0.660701,-0.623481,-0.627348,-0.663118,-0.630732,-0.629282,-0.652322,-0.639432,-0.627348,-0.622353,-0.622514,-0.630732,-0.598507,-0.605435,-0.627026,-0.57885,-0.607691,-0.594801,-0.565154,-0.560965,-0.572244,-0.537119,-0.578366,-0.580944,-0.547914,-0.560482,-0.547108,-0.536152,-0.556615,-0.552748,-0.521973,-0.542919,-0.531157,-0.541791,-0.547592,-0.514239,-0.514884,-0.503766,-0.519395,-0.497643,-0.505538,-0.490876,-0.485076,-0.482175,-0.502638,-0.487331,-0.460907,-0.511339,-0.453012,-0.463646,-0.497804,-0.458812,-0.451401,-0.489909,-0.464774,-0.484592,-0.494904,-0.466546,-0.47283,-0.47847,-0.511661,-0.49426,-0.486203,-0.51005,-0.503283,-0.506827,-0.493615,-0.524229,-0.469608,-0.491198,-0.48717,-0.499899,-0.466869,-0.49281,-0.47138,-0.462518,-0.47992,-0.464129,-0.475408,-0.46284,-0.47283,-0.469285,-0.468802,-0.462679,-0.484592,-0.461874,-0.501027,-0.497482,-0.459457,-0.499738,-0.477019,-0.512628,-0.474603,-0.500544,-0.486687,-0.477986,-0.505538,-0.49716,-0.482175,-0.453173,-0.495226,-0.438672,-0.492648,-0.456718,-0.450273,-0.494421,-0.467674,-0.45124,-0.455429,-0.448662,-0.448662,-0.460424,-0.4427,-0.453012,-0.45124,-0.447695,-0.4369,-0.462518,-0.429649,-0.427232,-0.433999,-0.428843,-0.42981,-0.395329,-0.420465,-0.410153,-0.413375,-0.425943,-0.398552,-0.410153,-0.438027,-0.411281,-0.379862,-0.441733,-0.395007,-0.394685,-0.424171,-0.368583,-0.400647,-0.397263,-0.405964,-0.401291,-0.386629,-0.402419,-0.409025,-0.371,-0.394846,-0.37245,-0.373094,-0.393557,-0.372772,-0.364555,-0.366327,-0.370355,-0.367938,-0.370033,-0.355854,-0.363588,-0.367938,-0.353921,-0.353759,-0.375189,-0.360849,-0.364877,-0.387757,-0.361816,-0.384051,-0.384695,-0.374544,-0.384373,-0.366327,-0.394685,-0.376478,-0.371322,-0.390979,-0.374061,-0.342481,-0.369227,-0.368422,-0.347637,-0.370194,-0.324435,-0.361816,-0.331524,-0.334425,-0.317345,-0.314606,-0.301233,-0.283993,-0.300589,-0.278676,-0.303489,-0.283993,-0.306872,-0.279965,-0.306228,-0.296399,-0.281898,-0.309773,-0.324113,-0.323307,-0.301072,-0.330558,-0.344414,-0.329913,-0.345059,-0.370516,-0.321212,-0.370194,-0.366972,-0.363749,-0.3768,-0.381473,-0.380506,-0.383245,-0.397585,-0.3681,-0.385179,-0.391785,-0.405964,-0.365522,-0.393718,-0.410153,-0.3681,-0.410475,-0.371483,-0.375028,-0.364233,-0.363749,-0.379862,-0.365199,-0.356821,-0.375672,-0.366649,-0.349248,-0.363105,-0.317345,-0.372611,-0.356821,-0.344253,-0.356821,-0.379539,-0.358754,-0.376639,-0.390335,-0.352632,-0.405158,-0.387596,-0.390496,-0.379539,-0.391624,-0.361655,-0.392429,-0.366972,-0.36536,-0.405158,-0.368261,-0.397907,-0.375833,-0.37535,-0.409347,-0.369872,-0.3797,-0.409992,-0.369711,-0.38824,-0.410797,-0.386629,-0.401452,-0.385823,-0.405803,-0.406447,-0.423043,-0.413053,-0.41837,-0.405158,-0.423526,-0.426426,-0.404514,-0.47283,-0.42401,-0.435449,-0.466869,-0.442861,-0.446084,-0.462357,-0.454301,-0.439155,-0.501349,-0.444311,-0.466546,-0.449467,-0.49571,-0.478953,-0.473475,-0.501027,-0.478953,-0.475569,-0.480242,-0.501188,-0.465418,-0.513272,-0.49716,-0.475408,-0.516334,-0.498449,-0.473152,-0.510372,-0.491198,-0.477181,-0.516656,-0.474119,-0.495226,-0.489104,-0.496354,-0.471219,-0.508439,-0.47428,-0.496515,-0.486042,-0.495549,-0.505538,-0.48572,-0.530029,-0.497643,-0.511661,-0.509728,-0.495388,-0.511017,-0.515045,-0.508277,-0.492326,-0.524551,-0.525518,-0.516978,-0.518267,-0.540825,-0.497966,-0.503766,-0.527129,-0.517784,-0.494904,-0.497482,-0.534863,-0.507794,-0.498127,-0.521006,-0.517945,-0.493293,-0.509728,-0.518267,-0.501833,-0.48427,-0.480242,-0.515528,-0.454623,-0.50296,-0.461229,-0.491682,-0.51585,-0.487331,-0.478631,-0.512789,-0.480564,-0.497482,-0.528096,-0.443344,-0.493776,-0.501349,-0.524873,-0.513756,-0.513756,-0.54308,-0.525679,-0.539536,-0.564993,-0.589323,-0.569505,-0.582878,-0.620098,-0.618809,-0.621709,-0.661345,-0.643138,-0.676813,-0.681969,-0.677458,-0.70791,-0.689059,-0.694053,-0.683258,-0.713066,-0.709038,-0.694053,-0.689059,-0.713388,-0.663118,-0.640399,-0.689703,-0.610591,-0.614136,-0.636532,-0.549847,-0.572727,-0.553553,-0.514561,-0.487815,-0.466385,-0.427715,-0.433033,-0.373255,-0.348442,-0.324918,-0.280609,-0.259341,-0.200369,-0.198597,-0.130119,-0.08726,-0.065347,-0.010887,0.067097,0.091105,0.163449,0.207275,0.269953,0.337303,0.405297,0.460563,0.506484,0.541931,0.579312,0.62201,0.665514,0.705312,0.747849,0.787164,0.819711,0.849036,0.882066,0.909941,0.933788,0.956667,0.986315,1.008066,1.025146,1.04432,1.060916,1.07735,1.093624,1.10877,1.116504,1.130522,1.138417,1.154369,1.164036,1.169192,1.185627,1.184982,1.19755,1.208346,1.207862,1.222364,1.222525,1.219463,1.231709,1.22043,1.194811,1.193039,1.143573,1.108931,1.046575,0.96988,0.885933,0.834212,0.700478,0.626039,0.532586,0.385157,0.308945,0.203247,0.100611,-0.032156,-0.131247,-0.229533,-0.322501,-0.43126,-0.524873,-0.622192,-0.704849,-0.747224,-0.815702,-0.852438,-0.860656,-0.877251,-0.90577,-0.893847,-0.925266,-0.94589,-0.94154,-0.956524,-0.946212,-0.956363,-0.981176,-0.999222,-1.008245,-0.998739,-1.016946,-1.020652,-1.00889,-1.037248,-1.033058,-1.038053,-1.062061,-1.048526,-1.044659,-1.056905,-1.078495,-1.080268,-1.089129,-1.094285,-1.089774,-1.101053,-1.09928,-1.097991,-1.095091,-1.091063,-1.074789,-1.088002,-1.094124,-1.112976,-1.116843,-1.112815,-1.119582,-1.096702,-1.092996,-1.095736,-1.095574,-1.091546,-1.121515,-1.12506,-1.128444,-1.137789,-1.114426,-1.118293,-1.112492,-1.115715,-1.110398,-1.126832,-1.136661,-1.144234,-1.12796,-1.132955,-1.1365,-1.116359,-1.123932,-1.127638,-1.137467,-1.145523,-1.144556,-1.135694,-1.125382,-1.121999,-1.123449,-1.122482,-1.131827,-1.150034,-1.140528,-1.139239,-1.1423,-1.132955,-1.130055,-1.130055,-1.119743,-1.119421,-1.142623,-1.131666,-1.14375,-1.1423,-1.131988,-1.125543,-1.129894,-1.119099,-1.11781,-1.118454,-1.113459,-1.119743,-1.111365,-1.108303,-1.098636,-1.105081,-1.105725,-1.101375,-1.089291,-1.096702,-1.070761,-1.058516,-1.089774,-1.050621,-1.053038,-1.036442,-1.013079,-1.034508,-1.02323,-0.977471,-0.994872,-0.98456,-0.947179,-0.972315,-0.915599,-0.919788,-0.914632,-0.887563,-0.88998,-0.877574,-0.854533,-0.837293,-0.834392,-0.838421,-0.824725,-0.768815,-0.825853,-0.80974,-0.785572,-0.787183,-0.775904,-0.754475,-0.80249,-0.773004,-0.748191,-0.782027,-0.776227,-0.757375,-0.760437,-0.741102,-0.744485,-0.75657,-0.747386,-0.735785,-0.768815,-0.752864,-0.757375,-0.77091,-0.755603,-0.75093,-0.740779,-0.742713,-0.733368,-0.719189,-0.752703,-0.741102,-0.727567,-0.768976,-0.748836,-0.74948,-0.738363,-0.744324,-0.761887,-0.758664,-0.755603,-0.740618,-0.749158,-0.765593,-0.718544,-0.715805,-0.727084,-0.716772,-0.719994,-0.718222,-0.707749,-0.703238,-0.69212,-0.715966,-0.694537,-0.710005,-0.666179,-0.68922,-0.687609,-0.672785,-0.681486,-0.688414,-0.665535,-0.693731,-0.706138,-0.660056,-0.694859,-0.697115,-0.684064,-0.694053,-0.694376,-0.729662,-0.689381,-0.700982,-0.714838,-0.699693,-0.68358,-0.716933,-0.707427,-0.694698,-0.710327,-0.689381,-0.714355,-0.697598,-0.698082,-0.682614,-0.713872,-0.697759,-0.684386,-0.711294,-0.700176,-0.717094,-0.675846,-0.704527,-0.680197,-0.670368,-0.670368,-0.694859,-0.666662,-0.665212,-0.680358,-0.662634,-0.66779,-0.671979,-0.649261,-0.660701,-0.683258,-0.658606,-0.644911,-0.638305,-0.647972,-0.660056,-0.645072,-0.658767,-0.615586,-0.641688,-0.645394,-0.622192,-0.628154,-0.636371,-0.628959,-0.623803,-0.653611,-0.587228,-0.630409,-0.616553,-0.637982,-0.612686,-0.624931,-0.617842,-0.615103,-0.628476,-0.615264,-0.599151,-0.585617,-0.607046,-0.587389,-0.611236,-0.602374,-0.571921,-0.585617,-0.605758,-0.577561,-0.569666,-0.606724,-0.5832,-0.602535,-0.586262,-0.572566,-0.569182,-0.584328,-0.594962,-0.572888,-0.548558,-0.590773,-0.542758,-0.535507,-0.555003,-0.518589,-0.536958,-0.529868,-0.509728,-0.502316,-0.534218,-0.51295,-0.504572,-0.558709,-0.509244,-0.536635,-0.516173,-0.516656,-0.500544,-0.50296,-0.519395,-0.523906,-0.526323,-0.529385,-0.521973,-0.522618,-0.547269,-0.539858,-0.547269,-0.562576,-0.54163,-0.529546,-0.575627,-0.539213,-0.517623,-0.546464,-0.517462,-0.551298,-0.550492,-0.531479,-0.556131,-0.515206,-0.514884,-0.532285,-0.503444,-0.503283,-0.519717,-0.482175,-0.476536,-0.459296,-0.497643,-0.444311,-0.461713,-0.444311,-0.420143,-0.435611,-0.440283,-0.424976,-0.406286,-0.432871,-0.39404,-0.42401,-0.424815,-0.390657,-0.400163,-0.416276,-0.402258,-0.40403,-0.443183,-0.389529,-0.423365,-0.41547,-0.422721,-0.404352,-0.421915,-0.403386,-0.409992,-0.415792,-0.380023,-0.425137,-0.374544,-0.404836,-0.377284,-0.365199,-0.389529,-0.394363,-0.354404,-0.387434,-0.350054,-0.342159,-0.368261,-0.308645,-0.335714,-0.331363,-0.313156,-0.321535,-0.316701,-0.294627,-0.290599,-0.266752,-0.288504,-0.279965,-0.24629,-0.286893,-0.245001,-0.2363,-0.255957,-0.242584,-0.246773,-0.254829,-0.244195,-0.243228,-0.250479,-0.222282,-0.238556,-0.240811,-0.233077,-0.228566,-0.270619,-0.26498,-0.253862,-0.257085,-0.27207,-0.303328,-0.262724,-0.298172,-0.275775,-0.280609,-0.321051,-0.299944,-0.281898,-0.318957,-0.289954,-0.277226,-0.328624,-0.281737,-0.282704,-0.280931,-0.283832,-0.280931,-0.278514,-0.27207,-0.265625,-0.264174,-0.269814,-0.264819,-0.220832,-0.287376,-0.255635,-0.236622,-0.2392,-0.240973,-0.230499,-0.234366,-0.2363,-0.234689,-0.214548,-0.221315,-0.22486,-0.207298,-0.226471,-0.200692,-0.216643,-0.202625,-0.201014,-0.193763,-0.213904,-0.208103,-0.199241,-0.229372,-0.190702,-0.209714,-0.220188,-0.217287,-0.20907,-0.228727,-0.197308,-0.204236,-0.240811,-0.188446,-0.206814,-0.217287,-0.205364,-0.212937,-0.233883,-0.223893,-0.225666,-0.22341,-0.241617,-0.227438,-0.222766,-0.240167,-0.209876,-0.239361,-0.247418,-0.253862,-0.248545,-0.260469,-0.252574,-0.240973,-0.278837,-0.26063,-0.283993,-0.282865,-0.292855,-0.290921,-0.312834,-0.311706,-0.307517,-0.334586,-0.317668,-0.331685,-0.331847,-0.339903,-0.314123,-0.332652,-0.325079,-0.346831,-0.317668,-0.337164,-0.305744,-0.318473,-0.367133,-0.303328,-0.35102,-0.359721,-0.343286,-0.370033,-0.355371,-0.356499,-0.352954,-0.349409,-0.357143,-0.392268,-0.344898,-0.392268,-0.367455,-0.359399,-0.381473,-0.395007,-0.3797,-0.419498,-0.397263,-0.387757,-0.426265,-0.394846,-0.455429,-0.420787,-0.440605,-0.435933,-0.465096,-0.470897,-0.450434,-0.469285,-0.486203,-0.487815,-0.476697,-0.523262,-0.493615,-0.517462,-0.523584,-0.532768,-0.501671,-0.549847,-0.539374,-0.542114,-0.589162,-0.549042,-0.577077,-0.579494,-0.572405,-0.583522,-0.573049,-0.593351,-0.607369,-0.583684,-0.584006,-0.620581,-0.591095,-0.613975,-0.617681,-0.59464,-0.602857,-0.604469,-0.597862,-0.597379,-0.580783,-0.607691,-0.608497,-0.566765,-0.610752,-0.577077,-0.589806,-0.589967,-0.567732,-0.587067,-0.576433,-0.549847,-0.563382,-0.58465,-0.553876,-0.578689,-0.593834,-0.581106,-0.574177,-0.591579,-0.604469,-0.584006,-0.604791,-0.593673,-0.611075,-0.610752,-0.606402,-0.613975,-0.60044,-0.61478,-0.616392,-0.59899,-0.608658,-0.61478,-0.595284,-0.620581,-0.582395,-0.5832,-0.609786,-0.579172,-0.589001,-0.592706,-0.586745,-0.592868,-0.609141,-0.595284,-0.633793,-0.586745,-0.60463,-0.629765,-0.596573,-0.615908,-0.631215,-0.644427,-0.627026,-0.652161,-0.665535,-0.658123,-0.682614,-0.669079,-0.677458,-0.705816,-0.690509,-0.696631,-0.690186,-0.670368,-0.682614,-0.705171,-0.708716,-0.670046,-0.667629,-0.68777,-0.658284,-0.675041,-0.681647,-0.658928,-0.660701,-0.680197,-0.655384,-0.685836,-0.67488,-0.638949,-0.660217,-0.672141,-0.640721,-0.665857,-0.651678,-0.670046,-0.648616,-0.658284,-0.665051,-0.636049,-0.653289,-0.63766,-0.659251,-0.676169,-0.659734,-0.66634,-0.654256,-0.637821,-0.653611,-0.693248,-0.626543,-0.658928,-0.649422,-0.631054,-0.64765,-0.649744,-0.627509,-0.627993,-0.639432,-0.656834,-0.625415,-0.616875,-0.630087,-0.608174,-0.606885,-0.620742,-0.612364,-0.605435,-0.601246,-0.622837,-0.597379,-0.603018,-0.579655,-0.609786,-0.605113,-0.580622,-0.608174,-0.615586,-0.569021,-0.563221,-0.592868,-0.55452,-0.580944,-0.569182,-0.568699,-0.586262,-0.568699,-0.582717,-0.562899,-0.578528,-0.60318,-0.575627,-0.585456,-0.619936,-0.586906,-0.603018,-0.606885,-0.578689,-0.609947,-0.62477,-0.611558,-0.575144,-0.626704,-0.619292,-0.600118,-0.62332,-0.60318,-0.626865,-0.609463,-0.606724,-0.611397,-0.611075,-0.567732,-0.613653,-0.587067,-0.573694,-0.572888,-0.558065,-0.582395,-0.528257,-0.548881,-0.561287,-0.526162,-0.530996,-0.561126,-0.511983,-0.533735,-0.536635,-0.504894,-0.533252,-0.487009,-0.531479,-0.511661,-0.502155,-0.519073,-0.530996,-0.498127,-0.518912,-0.533252,-0.498771,-0.552748,-0.512144,-0.542597,-0.548397,-0.561126,-0.523262,-0.566121,-0.576111,-0.565638,-0.601568,-0.566765,-0.577883,-0.590934,-0.589323,-0.587389,-0.595607,-0.589967,-0.612202,-0.568377,-0.586906,-0.615908,-0.573049,-0.607852,-0.588517,-0.588034,-0.603824,-0.591095,-0.564026,-0.587389,-0.553714,-0.531479,-0.573694,-0.51005,-0.554681,-0.507311,-0.551781,-0.524873,-0.522456,-0.524229,-0.513111,-0.483464,-0.478953,-0.507633,-0.462518,-0.50441,-0.475569,-0.49426,-0.481692,-0.492326,-0.474603,-0.518912,-0.497321,-0.477825,-0.522456,-0.501188,-0.49281,-0.512144,-0.517784,-0.508277,-0.52729,-0.504894,-0.517462,-0.549203,-0.536313,-0.547431,-0.52439,-0.548236,-0.539052,-0.533735,-0.553231,-0.540663,-0.541147,-0.569666,-0.561932,-0.550009,-0.596735,-0.576755,-0.567571,-0.578528,-0.588839,-0.572727,-0.577561,-0.579172,-0.590128,-0.567088,-0.588839,-0.611558,-0.562899,-0.581267,-0.614458,-0.588034,-0.587067,-0.58755,-0.579655,-0.589484,-0.59609,-0.577722,-0.595768,-0.579655,-0.568377,-0.592223,-0.573533,-0.581267,-0.578366,-0.582556,-0.597862,-0.566121,-0.593029,-0.609141,-0.565638,-0.58175,-0.582233,-0.562576,-0.58465,-0.586584,-0.577883,-0.595284,-0.576433,-0.596251,-0.617036,-0.560643,-0.57595,-0.605919,-0.573694,-0.58755,-0.590128,-0.589162,-0.564188,-0.604952,-0.603985,-0.595929,-0.587873,-0.590934,-0.589162,-0.575466,-0.605435,-0.576755,-0.571116,-0.602213,-0.579172,-0.574983,-0.588517,-0.560804,-0.573533,-0.601729,-0.561126,-0.572888,-0.589645,-0.575466,-0.568216,-0.590612,-0.56596,-0.589806,-0.562415,-0.572727,-0.606241,-0.572405,-0.578689,-0.583522,-0.60898,-0.60318,-0.591417,-0.607691,-0.601407,-0.63766,-0.622514,-0.639755,-0.61478,-0.651517,-0.618486,-0.628476,-0.618809,-0.652806,-0.616069,-0.629604,-0.6549,-0.61043,-0.647166,-0.632826,-0.642655,-0.615103,-0.631698,-0.606241,-0.627993,-0.631376,-0.617681,-0.617842,-0.595768,-0.637338,-0.593673,-0.604791,-0.601568,-0.612686,-0.603502,-0.599796,-0.600924,-0.601729,-0.648455,-0.60463,-0.63476,-0.607852,-0.601568,-0.610591,-0.637338,-0.614458,-0.61478,-0.60463,-0.618164,-0.627026,-0.600602,-0.619131,-0.605274,-0.62187,-0.598024,-0.580783,-0.571599,-0.576272,-0.570471,-0.560321,-0.581106,-0.52584,-0.559032,-0.575627,-0.530029,-0.528257,-0.544853,-0.496032,-0.540341,-0.522134,-0.521006,-0.540986,-0.485881,-0.525679,-0.52004,-0.523906,-0.507472,-0.508277,-0.502155,-0.49861,-0.49426,-0.520523,-0.505538,-0.492165,-0.548397,-0.496032,-0.514239,-0.552425,-0.555809,-0.542114,-0.553876,-0.530351,-0.561287,-0.576594,-0.524551,-0.564671,-0.561771,-0.595929,-0.544691,-0.575144,-0.565799,-0.575788,-0.587389,-0.559837,-0.58465,-0.549203,-0.561126,-0.559676,-0.573694,-0.536796,-0.583361,-0.55162,-0.570632,-0.545819,-0.551298,-0.559354,-0.521812,-0.566282,-0.530351,-0.538408,-0.556776,-0.548236,-0.513272,-0.540986,-0.530996,-0.54598,-0.559193,-0.525034,-0.534057,-0.530351,-0.534863,-0.568377,-0.533735,-0.545658,-0.555326,-0.530513,-0.559837,-0.558709,-0.550975,-0.572405,-0.564188,-0.561287,-0.575466,-0.579494,-0.558709,-0.574338,-0.578689,-0.562576,-0.577561,-0.5774,-0.556454,-0.565154,-0.565154,-0.560159,-0.580461,-0.566604,-0.556292,-0.563221,-0.544369,-0.598507,-0.546303,-0.535507,-0.539697,-0.531802,-0.551298,-0.544853,-0.550009,-0.545658,-0.518751,-0.528901,-0.559032,-0.504249,-0.509728,-0.503444,-0.482336,-0.516173,-0.472991,-0.488781,-0.500382,-0.496999,-0.459457,-0.492165,-0.479597,-0.445922,-0.475408,-0.462035,-0.448662,-0.483464,-0.448017,-0.428038,-0.456557,-0.4485,-0.442539,-0.451401,-0.440122,-0.438672,-0.442055,-0.456718,-0.451884,-0.443344,-0.450112,-0.467352,-0.448662,-0.466869,-0.463002,-0.454945,-0.47573,-0.446406,-0.492004,-0.475569,-0.457846,-0.485076,-0.484109,-0.457523,-0.46848,-0.462357,-0.439639,-0.482498,-0.461874,-0.481853,-0.466869,-0.466869,-0.461874,-0.46558,-0.477986,-0.455268,-0.48427,-0.456718,-0.457685,-0.462357,-0.475086,-0.450756,-0.471219,-0.465257,-0.464291,-0.468963,-0.45849,-0.467996,-0.473152,-0.474764,-0.433033,-0.46993,-0.450434,-0.454945,-0.432227,-0.454301,-0.401291,-0.416114,-0.435127,-0.384534,-0.415792,-0.38969,-0.370033,-0.383406,-0.365683,-0.365522,-0.379378,-0.364233,-0.339581,-0.363427,-0.330396,-0.361816,-0.320729,-0.354887,-0.357143,-0.332491,-0.351181,-0.360043,-0.33088,-0.326691,-0.370355,-0.326691,-0.359399,-0.361171,-0.348926,-0.341675,-0.364394,-0.348603,-0.344253,-0.356499,-0.334747,-0.35666,-0.321374,-0.369711,-0.326852,-0.335069,-0.352793,-0.343448,-0.312995,-0.336519,-0.311545,-0.309773,-0.356982,-0.275453,-0.328624,-0.326207,-0.287376,-0.331847,-0.307033,-0.284959,-0.328785,-0.289471,-0.283993,-0.329591,-0.270781,-0.308322,-0.312673,-0.306228,-0.281737,-0.300266,-0.280448,-0.289632,-0.271264,-0.269169,-0.336197,-0.279642,-0.295755,-0.301877,-0.297849,-0.276581,-0.296399,-0.305261,-0.296077,-0.288182,-0.294949,-0.313156,-0.283509,-0.286248,-0.264174,-0.274809,-0.289793,-0.270297,-0.254507,-0.268203,-0.26208,-0.251768,-0.261113,-0.232594,-0.232272,-0.247256,-0.210842,-0.225666,-0.248545,-0.225182,-0.218254,-0.219704,-0.236944,-0.248868,-0.219865,-0.253862,-0.245162,-0.22776,-0.25354,-0.235817,-0.227438,-0.271747,-0.270942,-0.258696,-0.259985,-0.260791,-0.233722,-0.227599,-0.246129,-0.225344,-0.26498,-0.24919,-0.251285,-0.258535,-0.253379,-0.291082,-0.249834,-0.279965,-0.266269,-0.268847,-0.269492,-0.281415,-0.263691,-0.275453,-0.278676,-0.262724,-0.302361,-0.298172,-0.292693,-0.319601,-0.307678,-0.300105,-0.285282,-0.291727,-0.294788,-0.290599,-0.293338,-0.295271,-0.264013,-0.295271,-0.31944,-0.290115,-0.320246,-0.289954,-0.287376,-0.29076,-0.313962,-0.274003,-0.311223,-0.292693,-0.286087,-0.306389,-0.288021,-0.275775,-0.297366,-0.292532,-0.299944,-0.300589,-0.285765,-0.307517,-0.287376,-0.284959,-0.298655,-0.292049,-0.320729,-0.308645,-0.304133,-0.299461,-0.318473,-0.299461,-0.36101,-0.322824,-0.318312,-0.34667,-0.305744,-0.325885,-0.335552,-0.329269,-0.338292,-0.359882,-0.341836,-0.341353,-0.357788,-0.34812,-0.344253,-0.327174,-0.359077,-0.341031,-0.354565,-0.356821,-0.34377,-0.331685,-0.368905,-0.352632,-0.358271,-0.369227,-0.349892,-0.360527,-0.355532,-0.362944,-0.351665,-0.364716,-0.351343,-0.348281,-0.392268,-0.340386,-0.384212,-0.364555,-0.371966,-0.363749,-0.401452,-0.363588,-0.374706,-0.382923,-0.387273,-0.377928,-0.356499,-0.407253,-0.353437,-0.36536,-0.400969,-0.366811,-0.378411,-0.370033,-0.341514,-0.378089,-0.381795,-0.347315,-0.372772,-0.355532,-0.364877,-0.336841,-0.360688,-0.361171,-0.367455,-0.372933,-0.381956,-0.370033,-0.335714,-0.402741,-0.349087,-0.358915,-0.381956,-0.38244,-0.361493,-0.406125,-0.373739,-0.393557,-0.424815,-0.359721,-0.413053,-0.38824,-0.373417,-0.408219,-0.389207,-0.375833,-0.418692,-0.381795,-0.384212,-0.401291,-0.355048,-0.400969,-0.384534,-0.375028,-0.366166,-0.380828,-0.349409,-0.370194,-0.362138,-0.339581,-0.336358,-0.326207,-0.357788,-0.34522,-0.346026,-0.353921,-0.346187,-0.339097,-0.370516,-0.355854,-0.354082,-0.400163,-0.369711,-0.40693,-0.410475,-0.427877,-0.457523,-0.449145,-0.446567,-0.479275,-0.508277,-0.503605,-0.545175,-0.506183,-0.56596,-0.55742,-0.539536,-0.571438,-0.600279,-0.554681,-0.587389,-0.571277,-0.557098,-0.581267,-0.536796,-0.546303,-0.533252,-0.5115,-0.499093,-0.483625,-0.463968,-0.465418,-0.431421,-0.43126,-0.40693,-0.380667,-0.36101,-0.312189,-0.289149,-0.266752,-0.218899,-0.189574,-0.161377,-0.103372,-0.063897,-0.038439,0.053885,0.114629,0.168928,0.232733,0.306045,0.352449,0.442678,0.519052,0.560944,0.607187,0.65198,0.690489,0.73367,0.77524,0.813588,0.847102,0.879488,0.909458,0.934916,0.958762,0.98857,1.008228,1.034169,1.051248,1.072194,1.089757,1.102969,1.118115,1.139545,1.148407,1.164519,1.170803,1.172898,1.199484,1.200451,1.212374,1.219141,1.232837,1.23622,1.248949,1.252655,1.262001,1.259745,1.256683,1.269251,1.277952,1.275535,1.26764,1.234448,1.21044,1.169192,1.114732,1.014189,0.964885,0.867404,0.779107,0.682916,0.612987,0.490371,0.3713,0.296699,0.174889,0.095616,-0.011532,-0.069698,-0.207459,-0.264336,-0.34667,-0.448823,-0.524068,-0.587873,-0.643299,-0.68632,-0.721445,-0.754314,-0.775421,-0.795723,-0.812157,-0.830848,-0.834554,-0.866295,-0.882569,-0.870162,-0.904643,-0.906093,-0.915438,-0.943796,-0.945085,-0.933161,-0.944762,-0.957491,-0.955397,-0.977632,-1.004378,-1.005667,-0.990683,-1.01614,-1.024035,-1.009051,-1.03902,-1.02178,-1.039342,-1.051104,-1.02613,-1.046109,-1.069795,-1.061738,-1.036603,-1.044659,-1.064155,-1.070278,-1.071245,-1.082684,-1.077529,-1.088807,-1.08784,-1.089452,-1.077045,-1.074306,-1.065444,-1.08204,-1.091224,-1.088324,-1.125705,-1.11926,-1.116843,-1.116037,-1.103953,-1.107981,-1.099119,-1.093158,-1.097186,-1.103469,-1.119743,-1.135694,-1.122965,-1.126832,-1.124738,-1.11926,-1.111687,-1.118132,-1.105081,-1.108303,-1.11362,-1.115232,-1.12216,-1.12651,-1.1336,-1.125382,-1.126832,-1.121999,-1.116843,-1.108948,-1.117971,-1.115554,-1.106209,-1.108787,-1.103308,-1.110076,-1.118776,-1.116843,-1.121838,-1.118615,-1.093802,-1.111203,-1.10492,-1.086068,-1.096863,-1.088324,-1.09348,-1.086551,-1.070761,-1.068506,-1.069311,-1.060772,-1.054488,-1.050299,-1.021135,-1.011629,-0.98021,-0.97312,-0.971187,-0.954269,-0.935739,-0.902709,-0.872579,-0.864039,-0.87854,-0.81538,-0.83117,-0.797334,-0.785411,-0.744808,-0.751897,-0.712583,-0.718061,-0.705654,-0.681808,-0.68632,-0.648455,-0.678424,-0.651678,-0.624931,-0.628798,-0.631215,-0.628798,-0.629604,-0.590773,-0.62042,-0.603985,-0.576594,-0.639271,-0.59319,-0.604952,-0.59609,-0.607852,-0.609141,-0.611719,-0.597701,-0.600763,-0.633793,-0.600602,-0.631698,-0.639432,-0.623803,-0.629443,-0.648455,-0.633632,-0.631215,-0.640077,-0.627831,-0.630087,-0.591095,-0.617681,-0.611236,-0.601407,-0.604307,-0.594962,-0.581428,-0.570632,-0.59464,-0.553553,-0.588678,-0.554198,-0.591095,-0.526323,-0.546142,-0.544853,-0.537119,-0.549364,-0.544853,-0.511178,-0.531963,-0.562415,-0.499416,-0.532446,-0.519717,-0.514239,-0.522295,-0.507311,-0.486365,-0.514239,-0.499416,-0.486687,-0.52004,-0.476053,-0.503444,-0.484592,-0.493937,-0.497804,-0.476053,-0.471541,-0.486526,-0.46703,-0.460746,-0.48862,-0.431099,-0.480886,-0.482014,-0.464291,-0.463646,-0.474119,-0.45414,-0.48427,-0.474119,-0.46848,-0.496999,-0.472991,-0.489104,-0.50006,-0.489426,-0.488298,-0.522456,-0.50296,-0.497804,-0.524551,-0.486203,-0.528901,-0.494421,-0.534863,-0.493776,-0.464291,-0.500382,-0.508761,-0.474119,-0.490876,-0.466224,-0.462518,-0.478147,-0.452045,-0.480725,-0.441733,-0.459296,-0.477342,-0.447211,-0.439961,-0.444311,-0.430293,-0.433838,-0.459779,-0.424332,-0.450112,-0.445278,-0.436738,-0.458812,-0.449306,-0.422398,-0.42981,-0.4485,-0.436255,-0.44125,-0.424815,-0.433838,-0.421432,-0.415631,-0.4398,-0.411442,-0.395007,-0.399035,-0.387918,-0.378895,-0.398552,-0.368261,-0.39114,-0.395329,-0.341997,-0.361655,-0.349731,-0.327657,-0.343125,-0.346992,-0.322663,-0.366811,-0.328463,-0.315573,-0.332813,-0.321051,-0.325563,-0.309611,-0.313962,-0.30075,-0.325724,-0.332652,-0.314767,-0.305744,-0.316056,-0.344898,-0.285443,-0.294627,-0.336197,-0.294788,-0.299944,-0.325563,-0.272714,-0.296883,-0.301394,-0.281898,-0.297849,-0.278031,-0.297205,-0.273197,-0.294788,-0.307839,-0.291404,-0.260146,-0.302522,-0.28641,-0.261596,-0.311384,-0.262724,-0.275131,-0.292855,-0.28077,-0.270136,-0.290115,-0.273197,-0.274648,-0.279803,-0.263852,-0.292371,-0.274164,-0.275614,-0.264013,-0.270781,-0.26063,-0.25918,-0.259663,-0.243712,-0.265786,-0.250157,-0.258857,-0.242584,-0.265786,-0.242906,-0.265947,-0.265786,-0.279159,-0.245484,-0.245323,-0.284798,-0.226149,-0.268041,-0.248707,-0.237911,-0.24484,-0.247901,-0.230661,-0.250801,-0.229855,-0.22341,-0.240328,-0.236461,-0.239684,-0.225827,-0.225988,-0.22341,-0.200853,-0.198919,-0.201658,-0.180551,-0.172817,-0.184418,-0.164439,-0.170884,-0.180551,-0.150582,-0.146876,-0.136725,-0.122707,-0.14881,-0.129797,-0.080815,-0.155577,-0.086777,-0.093383,-0.103211,-0.123835,-0.099505,-0.120291,-0.089516,-0.111751,-0.102889,-0.07582,-0.136081,-0.072759,-0.115618,-0.103211,-0.103372,-0.161055,-0.129152,-0.104178,-0.15026,-0.134953,-0.118679,-0.188285,-0.153321,-0.163633,-0.169917,-0.179423,-0.204397,-0.194891,-0.18039,-0.202142,-0.202464,-0.19328,-0.215515,-0.208587,-0.211003,-0.204075,-0.204558,-0.193763,-0.199564,-0.173462,-0.182323,-0.191507,-0.15606,-0.213581,-0.16041,-0.179584,-0.160894,-0.164761,-0.183451,-0.163472,-0.154771,-0.154127,-0.162827,-0.126897,-0.176523,-0.123513,-0.165244,-0.150582,-0.1675,-0.149293,-0.145265,-0.142526,-0.144943,-0.129152,-0.125124,-0.155093,-0.111429,-0.130925,-0.115779,-0.110623,-0.108851,-0.094188,-0.10015,-0.116746,-0.067281,-0.062125,-0.099828,-0.05568,-0.085649,-0.059063,-0.071792,-0.061319,-0.100956,-0.096928,-0.083393,-0.096605,-0.092416,-0.115296,-0.089677,-0.132214,-0.115779,-0.142042,-0.151388,-0.161377,-0.140109,-0.185385,-0.187157,-0.153804,-0.190218,-0.189413,-0.183773,-0.181034,-0.210037,-0.204075,-0.190218,-0.21342,-0.214548,-0.210198,-0.229694,-0.251446,-0.182646,-0.235494,-0.245645,-0.230338,-0.245645,-0.217932,-0.213259,-0.258374,-0.253701,-0.252896,-0.275775,-0.252251,-0.254507,-0.293016,-0.296238,-0.290599,-0.311545,-0.337164,-0.320729,-0.338614,-0.32379,-0.341997,-0.369389,-0.364394,-0.376478,-0.377606,-0.3797,-0.384534,-0.390657,-0.363266,-0.414503,-0.402097,-0.395652,-0.417565,-0.394524,-0.429488,-0.405641,-0.442539,-0.427232,-0.415148,-0.445922,-0.410636,-0.426104,-0.46703,-0.461229,-0.4456,-0.481692,-0.459457,-0.496838,-0.472991,-0.467513,-0.478792,-0.512306,-0.489909,-0.503605,-0.505538,-0.512144,-0.519395,-0.507311,-0.526968,-0.497804,-0.538569,-0.524551,-0.547914,-0.546786,-0.562254,-0.555326,-0.547269,-0.569666,-0.550009,-0.562737,-0.567732,-0.594962,-0.576755,-0.592384,-0.572244,-0.578366,-0.593673,-0.577561,-0.589323,-0.599635,-0.596412,-0.5861,-0.575466,-0.594479,-0.609624,-0.55597,-0.600279,-0.592062,-0.557743,-0.620098,-0.594318,-0.579978,-0.61043,-0.60608,-0.604146,-0.61478,-0.601407,-0.619131,-0.616392,-0.63186,-0.635727,-0.615264,-0.646522,-0.625576,-0.659412,-0.63621,-0.661345,-0.637177,-0.661023,-0.676652,-0.633471,-0.682291,-0.654256,-0.64765,-0.673913,-0.680358,-0.656673,-0.684064,-0.663762,-0.658767,-0.672302,-0.614619,-0.656189,-0.643944,-0.601891,-0.632343,-0.643944,-0.612202,-0.613491,-0.625737,-0.621709,-0.619453,-0.602213,-0.631376,-0.610752,-0.623965,-0.619614,-0.604146,-0.613169,-0.612202,-0.614942,-0.611558,-0.614619,-0.603824,-0.625898,-0.591095,-0.623159,-0.613653,-0.612525,-0.608335,-0.628798,-0.615747,-0.62477,-0.64765,-0.617681,-0.632987,-0.638949,-0.642172,-0.62187,-0.63766,-0.642655,-0.631376,-0.620581,-0.618647,-0.659895,-0.633471,-0.655223,-0.640238,-0.657317,-0.665212,-0.645716,-0.655706,-0.655384,-0.636693,-0.668757,-0.675524,-0.656834,-0.686964,-0.664568,-0.667629,-0.687931,-0.689703,-0.657639,-0.701787,-0.665212,-0.64765,-0.693087,-0.65909,-0.649583,-0.660056,-0.665051,-0.643461,-0.668274,-0.656028,-0.644427,-0.645877,-0.647328,-0.651839,-0.63186,-0.642977,-0.632504,-0.627026,-0.630732,-0.634921,-0.618809,-0.637177,-0.632182,-0.601891,-0.667951,-0.62187,-0.628637,-0.672785,-0.64765,-0.650228,-0.681486,-0.65635,-0.668596,-0.667146,-0.672141,-0.699048,-0.643138,-0.686642,-0.694859,-0.66199,-0.682453,-0.702754,-0.663923,-0.676813,-0.66054,-0.673913,-0.706621,-0.629926,-0.65345,-0.656512,-0.680358,-0.673752,-0.679069,-0.656512,-0.655545,-0.660862,-0.674396,-0.666985,-0.646683,-0.651194,-0.679713,-0.643299,-0.655223,-0.673591,-0.645555,-0.655545,-0.678747,-0.652806,-0.681325,-0.679069,-0.646039,-0.666501,-0.658445,-0.652806,-0.663118,-0.649744,-0.671013,-0.648616,-0.646039,-0.652967,-0.641527,-0.673591,-0.66344,-0.633954,-0.63911,-0.642655,-0.644427,-0.630087,-0.618809,-0.626543,-0.628798,-0.618164,-0.642333,-0.610752,-0.612041,-0.62767,-0.624126,-0.596735,-0.585939,-0.61043,-0.63186,-0.635565,-0.612202,-0.585295,-0.614136,-0.595607,-0.595768,-0.620903,-0.573855,-0.570794,-0.603663,-0.58465,-0.594157,-0.602374,-0.572083,-0.597701,-0.583039,-0.594318,-0.590612,-0.599796,-0.573372,-0.584489,-0.571116,-0.57321,-0.568216,-0.568216,-0.584489,-0.55742,-0.574499,-0.572405,-0.585778,-0.592868,-0.599796,-0.616392,-0.625737,-0.641527,-0.637982,-0.648616,-0.637499,-0.648294,-0.657478,-0.661829,-0.661023,-0.669079,-0.683742,-0.681164,-0.682614,-0.653289,-0.682936,-0.643138,-0.651033,-0.651033,-0.62187,-0.628476,-0.628637,-0.593029,-0.625898,-0.628154,-0.587067,-0.607046,-0.577883,-0.577077,-0.576755,-0.56451,-0.549042,-0.581106,-0.528901,-0.534863,-0.537924,-0.515689,-0.541308,-0.493454,-0.516978,-0.523745,-0.513111,-0.50715,-0.513272,-0.506666,-0.550331,-0.558548,-0.538085,-0.564671,-0.571438,-0.561448,-0.575627,-0.574661,-0.570955,-0.611719,-0.590451,-0.577239,-0.606563,-0.581911,-0.601246,-0.587067,-0.594157,-0.585778,-0.577883,-0.580622,-0.584489,-0.577561,-0.562254,-0.57595,-0.546947,-0.585456,-0.547269,-0.567571,-0.565799,-0.533896,-0.563704,-0.56451,-0.539374,-0.540825,-0.547108,-0.530029,-0.563543,-0.556131,-0.55597,-0.51585,-0.55017,-0.556776,-0.569666,-0.563221,-0.581589,-0.604952,-0.569988,-0.601246,-0.611236,-0.604952,-0.63331,-0.65345,-0.604791,-0.627348,-0.649583,-0.602857,-0.641366,-0.60463,-0.647166,-0.656995,-0.646683,-0.635082,-0.643138,-0.619453,-0.636049,-0.625898,-0.616231,-0.643138,-0.601729,-0.665857,-0.630893,-0.630248,-0.642977,-0.645394,-0.625898,-0.664084,-0.647166,-0.616069,-0.678263,-0.648778,-0.636532,-0.650711,-0.66054,-0.65345,-0.648616,-0.624931,-0.66924,-0.656673,-0.650389,-0.668596,-0.645877,-0.629765,-0.62332,-0.625092,-0.625737,-0.625254,-0.608658,-0.642333,-0.620098,-0.626865,-0.635888,-0.603341,-0.609463,-0.594801,-0.584167,-0.594801,-0.599151,-0.591095,-0.586906,-0.56741,-0.58175,-0.589806,-0.553231,-0.601729,-0.591256,-0.576433,-0.605596,-0.5832,-0.568216,-0.617358,-0.598829,-0.612202,-0.632504,-0.616875,-0.631054,-0.635243,-0.634599,-0.644588,-0.641366,-0.637499,-0.658445,-0.677458,-0.639916,-0.665535,-0.653128,-0.670046,-0.661668,-0.694376,-0.680358,-0.664729,-0.66344,-0.681969,-0.696309,-0.670368,-0.69792,-0.661345,-0.671818,-0.700982,-0.661829,-0.678102,-0.679875,-0.645555,-0.672302,-0.660056,-0.627831,-0.651356,-0.633954,-0.604952,-0.631698,-0.633149,-0.62767,-0.598346,-0.620581,-0.595123,-0.611397,-0.611719,-0.580139,-0.585295,-0.588517,-0.577239,-0.5861,-0.593673,-0.568216,-0.589967,-0.5803,-0.590934,-0.571277,-0.599796,-0.588839,-0.586423,-0.608658,-0.592706,-0.596735,-0.612686,-0.600602,-0.595607,-0.62332,-0.610913,-0.602213,-0.611397,-0.588517,-0.627348,-0.614942,-0.619131,-0.594962,-0.601568,-0.615103,-0.581106,-0.562415,-0.587712,-0.57595,-0.576272,-0.603502,-0.55597,-0.598829,-0.563704,-0.552587,-0.557904,-0.581267,-0.545658,-0.562576,-0.585939,-0.563221,-0.568216,-0.568699,-0.601246,-0.57885,-0.582717,-0.597701,-0.592868,-0.614458,-0.600602,-0.618003,-0.617681,-0.618164,-0.631215,-0.649583,-0.64201,-0.662151,-0.662151,-0.665051,-0.641849,-0.670368,-0.687286,-0.639755,-0.681002,-0.661184,-0.663762,-0.657639,-0.672302,-0.663118,-0.670368,-0.625254,-0.669401,-0.648778,-0.635727,-0.675524,-0.639755,-0.648294,-0.659412,-0.642333,-0.650389,-0.675363,-0.648616,-0.679875,-0.65909,-0.655545,-0.662957,-0.66634,-0.696954,-0.664246,-0.666824,-0.67923,-0.671335,-0.671657,-0.669401,-0.693731,-0.668596,-0.697437,-0.684708,-0.675524,-0.684386,-0.706621,-0.684386,-0.704043,-0.697598,-0.66489,-0.699371,-0.679875,-0.681486,-0.669724,-0.698404,-0.673591,-0.692442,-0.687931,-0.705171,-0.687609,-0.672624,-0.723217,-0.666824,-0.695987,-0.690992,-0.699532,-0.692442,-0.697276,-0.684064,-0.670852,-0.674719,-0.65635,-0.675363,-0.624609,-0.661184,-0.623803,-0.648133,-0.658123,-0.627348,-0.620581,-0.642655,-0.621548,-0.622353,-0.666179,-0.63476,-0.658284,-0.660862,-0.675524,-0.651678,-0.688575,-0.661829,-0.674719,-0.661668,-0.670207,-0.711133,-0.675685,-0.704204,-0.729984,-0.693248,-0.687286,-0.69647,-0.675202,-0.695826,-0.677458,-0.695826,-0.707105,-0.675363,-0.690186,-0.68358,-0.685192,-0.704204,-0.67069,-0.683258,-0.723217,-0.671013,-0.700015,-0.743519,-0.687125,-0.715483,-0.731595,-0.717739,-0.724345,-0.739652,-0.718705,-0.723217,-0.722411,-0.740457,-0.742391,-0.720639,-0.719833,-0.711777,-0.720961,-0.70791,-0.712099,-0.710327,-0.714355,-0.699854,-0.703076,-0.7237,-0.683097,-0.672141,-0.691959,-0.663762,-0.673752,-0.685514,-0.657156,-0.663923,-0.666985,-0.633793,-0.67778,-0.657478,-0.645233,-0.647811,-0.627026,-0.621064,-0.614619,-0.622998,-0.613975,-0.612364,-0.63186,-0.625576,-0.616392,-0.59754,-0.604791,-0.582395,-0.630409,-0.611719,-0.618164,-0.616069,-0.60898,-0.601568,-0.626381,-0.613975,-0.610913,-0.639594,-0.629282,-0.619453,-0.610108,-0.635888,-0.592223,-0.618003,-0.618164,-0.640077,-0.62332,-0.615103,-0.651517,-0.639755,-0.645233,-0.631215,-0.656189,-0.644588,-0.644911,-0.632021,-0.670852,-0.643944,-0.650872,-0.657478,-0.62767,-0.672785,-0.659895,-0.650872,-0.654578,-0.665373,-0.637338,-0.671818,-0.673591,-0.63766,-0.669401,-0.656995,-0.664084,-0.667468,-0.695987,-0.672785,-0.694215,-0.686803,-0.706299,-0.703238,-0.70211,-0.706138,-0.687125,-0.700337,-0.714194,-0.706782,-0.704365,-0.720961,-0.692926,-0.71645,-0.708232,-0.678263,-0.721445,-0.708232,-0.693892,-0.701465,-0.698082,-0.682936,-0.694537,-0.673752,-0.687286,-0.696954,-0.648939,-0.679875,-0.671335,-0.688414,-0.675202,-0.658284,-0.686481,-0.700337,-0.694376,-0.705654,-0.680841,-0.69357,-0.715966,-0.688575,-0.723056,-0.702915,-0.705654,-0.702432,-0.699209,-0.683742,-0.688575,-0.72515,-0.662473,-0.704849,-0.699209,-0.684386,-0.693409,-0.681002,-0.665051,-0.696148,-0.688092,-0.677458,-0.690186,-0.651194,-0.687125,-0.661668,-0.674557,-0.676491,-0.675202,-0.673591,-0.694859,-0.647166,-0.679713,-0.679713,-0.65055,-0.687286,-0.647166,-0.651033,-0.652806,-0.66634,-0.644588,-0.677297,-0.643622,-0.637982,-0.670368,-0.628637,-0.664568,-0.65635,-0.663601,-0.661345,-0.655545,-0.641205,-0.65909,-0.654256,-0.660379,-0.669079,-0.634438,-0.668596,-0.65909,-0.640399,-0.68068,-0.663923,-0.622676,-0.646844,-0.637982,-0.618164,-0.655223,-0.601085,-0.633632,-0.63476,-0.631054,-0.616875,-0.657156,-0.643138,-0.648616,-0.655867,-0.652967,-0.678908,-0.63766,-0.695826,-0.665051,-0.669563,-0.678586,-0.685031,-0.677619,-0.685514,-0.681164,-0.677619,-0.685514,-0.651194,-0.665051,-0.677297,-0.645716,-0.664246,-0.6549,-0.608819,-0.632504,-0.640883,-0.598024,-0.644427,-0.569343,-0.597862,-0.627509,-0.579333,-0.578366,-0.586423,-0.551136,-0.573049,-0.56451,-0.576916,-0.572244,-0.556131,-0.58755,-0.581428,-0.558065,-0.592545,-0.599957,-0.585939,-0.591417,-0.601568,-0.603663,-0.60898,-0.606241,-0.619131,-0.616392,-0.614458,-0.617036,-0.625576,-0.635082,-0.611558,-0.619936,-0.623803,-0.620259,-0.611236,-0.623803,-0.63766,-0.607691,-0.614136,-0.624448,-0.62477,-0.618647,-0.611236,-0.608174,-0.632987,-0.601085,-0.616069,-0.618809,-0.607691,-0.609624,-0.615908,-0.613491,-0.62477,-0.631698,-0.620259,-0.652645,-0.634921,-0.629604,-0.675524,-0.642655,-0.669724,-0.677619,-0.688253,-0.676008,-0.704365,-0.714194,-0.721767,-0.72934,-0.764465,-0.772521,-0.779771,-0.79105,-0.781705,-0.797012,-0.804907,-0.81538,-0.821825,-0.824564,-0.822469,-0.832942,-0.849055,-0.838582,-0.83971,-0.847927,-0.851633,-0.844866,-0.855822,-0.836326,-0.839226,-0.827464,-0.814896,-0.815863,-0.77236,-0.764626,-0.732401,-0.694859,-0.661506,-0.643138,-0.555326,-0.554037,-0.486526,-0.406769,-0.351665,-0.297366,-0.235011,-0.149615,-0.082104,-0.010243,0.079826,0.157004,0.216621,0.326508,0.377584,0.480543,0.567389,0.611376,0.65633,0.700156,0.738182,0.781524,0.816488,0.851936,0.881583,0.914936,0.934754,0.966496,0.990504,1.011128,1.030141,1.055437,1.065588,1.09153,1.103614,1.117149,1.135195,1.146151,1.164358,1.165325,1.179504,1.1932,1.198195,1.20754,1.214952,1.217046,1.231226,1.237509,1.223492,1.261034,1.254428,1.258778,1.258617,1.241538,1.224458,1.203512,1.166453,1.10168,1.052215,0.946194,0.895923,0.782008,0.713852,0.604126,0.492466,0.388057,0.299116,0.177145,0.083693,-0.012659,-0.136081,-0.208587,-0.325724,-0.392429,-0.488781,-0.56741,-0.639594,-0.703238,-0.745774,-0.792339,-0.809418,-0.836326,-0.837132,-0.869034,-0.888852,-0.886919,-0.907865,-0.920433,-0.923011,-0.939445,-0.964581,-0.971509,-0.990038,-0.986493,-0.992455,-0.9989,-0.977148,-1.004217,-1.020491,-0.994872,-1.029191,-1.017913,-1.043048,-1.022102,-1.046109,-1.041115,-1.034186,-1.064155,-1.066733,-1.052071,-1.044176,-1.053199,-1.072856,-1.067378,-1.083007,-1.075595,-1.077851,-1.082846,-1.083329,-1.066733,-1.091224,-1.115876,-1.111526,-1.112492,-1.083329,-1.095736,-1.091224,-1.113781,-1.131344,-1.119904,-1.104758,-1.113137,-1.102019,-1.116521,-1.136017,-1.121354,-1.121838,-1.120871,-1.116359,-1.112009,-1.124899,-1.136983,-1.13215,-1.132472,-1.131505,-1.123449,-1.113298,-1.121032,-1.10637,-1.141495,-1.142784,-1.134728,-1.128605,-1.131505,-1.11781,-1.111687,-1.136339,-1.123449,-1.143106,-1.142623,-1.143106,-1.130699,-1.130538,-1.131344,-1.127155,-1.118293,-1.126188,-1.139078,-1.133277,-1.150034,-1.134728,-1.126349,-1.133922,-1.140206,-1.114748,-1.131505,-1.129894,-1.117004,-1.137467,-1.126349,-1.148745,-1.132633,-1.130377,-1.135694,-1.132311,-1.130377,-1.126188,-1.136178,-1.128605,-1.139239,-1.124899,-1.146651,-1.151807,-1.129249,-1.145362,-1.13795,-1.124577,-1.144234,-1.131827,-1.138111,-1.134405,-1.119904,-1.140045,-1.122804,-1.12506,-1.126027,-1.126832,-1.130699,-1.119421,-1.125221,-1.119582,-1.117004,-1.100247,-1.110398,-1.118937,-1.092835,-1.092835,-1.092352,-1.070439,-1.073823,-1.055293,-1.04047,-1.061577,-1.005023,-1.015818,-1.013079,-0.976343,-1.000834,-0.978276,-0.928328,-0.952013,-0.954591,-0.885952,-0.947985,-0.901259,-0.910121,-0.895136,-0.874835,-0.870323,-0.86275,-0.862911,-0.856466,-0.845993,-0.848732,-0.84261,-0.813607,-0.8584,-0.829559,-0.836165,-0.849699,-0.854211,-0.827625,-0.850183,-0.876607,-0.866617,-0.888691,-0.853405,-0.868067,-0.87854,-0.861461,-0.855661,-0.855177,-0.835681,-0.828592,-0.863878,-0.840837,-0.854855,-0.794756,-0.835198,-0.81393,-0.811352,-0.790567,-0.796528,-0.762048,-0.7896,-0.764626,-0.742874,-0.779127,-0.7208,-0.741907,-0.735946,-0.731918,-0.732401,-0.724184,-0.700982,-0.706621,-0.7179,-0.718061,-0.721122,-0.717255,-0.727567,-0.704849,-0.702593,-0.713227,-0.678424,-0.707266,-0.711294,-0.69212,-0.669079,-0.708877,-0.684547,-0.66344,-0.685675,-0.676169,-0.658928,-0.689703,-0.649905,-0.637338,-0.666985,-0.649583,-0.643783,-0.631537,-0.633954,-0.636854,-0.624448,-0.630571,-0.635243,-0.595607,-0.620903,-0.619936,-0.58755,-0.610913,-0.579978,-0.586906,-0.610752,-0.575466,-0.593673,-0.61188,-0.579172,-0.576916,-0.59609,-0.606402,-0.600602,-0.598185,-0.604952,-0.584006,-0.593834,-0.595768,-0.575144,-0.594157,-0.583845,-0.566765,-0.589645,-0.618003,-0.5803,-0.578689,-0.59464,-0.578366,-0.60318,-0.587067,-0.56596,-0.581267,-0.596896,-0.530029,-0.585134,-0.571116,-0.539052,-0.576916,-0.57885,-0.544369,-0.566443,-0.54163,-0.525357,-0.546947,-0.524873,-0.546303,-0.525679,-0.53583,-0.539536,-0.510855,-0.524551,-0.519395,-0.53164,-0.509244,-0.513272,-0.498449,-0.52294,-0.492648,-0.519234,-0.525357,-0.476214,-0.510694,-0.521329,-0.49571,-0.503444,-0.508922,-0.481853,-0.522618,-0.542758,-0.505055,-0.537763,-0.513433,-0.491359,-0.511017,-0.506505,-0.489587,-0.524551,-0.488459,-0.479114,-0.53728,-0.468963,-0.48862,-0.486687,-0.501349,-0.460907,-0.469285,-0.46993,-0.473636,-0.419015,-0.464452,-0.455107,-0.422721,-0.467996,-0.43835,-0.421593,-0.428521,-0.42546,-0.407575,-0.427877,-0.425621,-0.388401,-0.411925,-0.394846,-0.395491,-0.375511,-0.405803,-0.401291,-0.374383,-0.374867,-0.393557,-0.374544,-0.367938,-0.402902,-0.354082,-0.359238,-0.358754,-0.357626,-0.375511,-0.372128,-0.34812,-0.384534,-0.353598,-0.339419,-0.362138,-0.330719,-0.353598,-0.353115,-0.335391,-0.332008,-0.335875,-0.329752,-0.334425,-0.311384,-0.34522,-0.334747,-0.315251,-0.348926,-0.309289,-0.336358,-0.330396,-0.310578,-0.309773,-0.330396,-0.295271,-0.303328,-0.340547,-0.278353,-0.318957,-0.311545,-0.313317,-0.298816,-0.337164,-0.302844,-0.285926,-0.301233,-0.294949,-0.31799,-0.288826,-0.283348,-0.273681,-0.30655,-0.30365,-0.303811,-0.295755,-0.30655,-0.276903,-0.301072,-0.341192,-0.287215,-0.334586,-0.315573,-0.299622,-0.33668,-0.346509,-0.317507,-0.331524,-0.315251,-0.300911,-0.339581,-0.3022,-0.337486,-0.30365,-0.338292,-0.316218,-0.3022,-0.31364,-0.323307,-0.31364,-0.337003,-0.324757,-0.288665,-0.297527,-0.304133,-0.291566,-0.281737,-0.287699,-0.26063,-0.281576,-0.28367,-0.250962,-0.264174,-0.242584,-0.218254,-0.263852,-0.212937,-0.202464,-0.251607,-0.201014,-0.199725,-0.220671,-0.191669,-0.19473,-0.225344,-0.198436,-0.205686,-0.194085,-0.213743,-0.204558,-0.222766,-0.241295,-0.230177,-0.213259,-0.223088,-0.241617,-0.220671,-0.252574,-0.228888,-0.248545,-0.255313,-0.266914,-0.261758,-0.262241,-0.247256,-0.288021,-0.294305,-0.258535,-0.297044,-0.277226,-0.28931,-0.278514,-0.308967,-0.263369,-0.3022,-0.297205,-0.29221,-0.320729,-0.296722,-0.327496,-0.325724,-0.326046,-0.31364,-0.335391,-0.327496,-0.332169,-0.336036,-0.351826,-0.336358,-0.325402,-0.371322,-0.324113,-0.356982,-0.351504,-0.360043,-0.361493,-0.384373,-0.3681,-0.367938,-0.402258,-0.383567,-0.405964,-0.396941,-0.424815,-0.409186,-0.432227,-0.427715,-0.424976,-0.447534,-0.426104,-0.468802,-0.448339,-0.480242,-0.47283,-0.483787,-0.487492,-0.495065,-0.483625,-0.513272,-0.495388,-0.493454,-0.544853,-0.496354,-0.550975,-0.532607,-0.538408,-0.526001,-0.557904,-0.550975,-0.551781,-0.559837,-0.562899,-0.584811,-0.590451,-0.61333,-0.582072,-0.612847,-0.622998,-0.613169,-0.622192,-0.641044,-0.639755,-0.632987,-0.692281,-0.660217,-0.691153,-0.685514,-0.715,-0.683742,-0.733368,-0.702754,-0.711777,-0.725956,-0.735301,-0.772682,-0.717255,-0.776871,-0.759148,-0.742391,-0.76237,-0.789117,-0.756731,-0.780094,-0.77671,-0.761242,-0.793145,-0.738685,-0.783961,-0.770426,-0.768976,-0.774938,-0.791695,-0.765593,-0.805551,-0.76672,-0.775743,-0.815702,-0.760437,-0.807001,-0.785894,-0.791372,-0.785733,-0.796528,-0.770104,-0.79105,-0.77671,-0.777032,-0.793306,-0.787989,-0.783477,-0.763659,-0.748674,-0.765593,-0.771876,-0.759309,-0.769298,-0.753508,-0.754636,-0.784766,-0.780577,-0.746097,-0.767687,-0.74948,-0.753992,-0.774293,-0.75093,-0.767848,-0.754314,-0.73514,-0.767526,-0.758825,-0.74658,-0.732723,-0.729662,-0.730467,-0.717416,-0.70646,-0.722895,-0.672463,-0.67343,-0.698887,-0.646683,-0.642816,-0.636693,-0.626059,-0.63476,-0.629604,-0.608335,-0.615586,-0.618809,-0.616714,-0.624609,-0.657317,-0.642172,-0.658445,-0.665212,-0.681647,-0.68358,-0.707588,-0.703238,-0.709682,-0.726762,-0.736107,-0.722572,-0.757536,-0.744646,-0.731273,-0.739974,-0.743357,-0.719511,-0.743357,-0.751897,-0.714194,-0.737718,-0.72934,-0.722895,-0.717094,-0.702915,-0.701465,-0.690348,-0.690348,-0.685836,-0.678586,-0.656834,-0.670529,-0.661184,-0.669885,-0.668918,-0.64201,-0.656673,-0.639916,-0.622837,-0.643138,-0.619614,-0.603341,-0.612686,-0.60898,-0.607369,-0.585295,-0.5861,-0.595446,-0.571277,-0.561126,-0.583522,-0.563543,-0.547592,-0.586423,-0.549203,-0.550814,-0.573855,-0.56596,-0.573855,-0.600279,-0.599957,-0.576594,-0.622353,-0.596573,-0.615425,-0.612364,-0.633471,-0.631376,-0.618647,-0.649583,-0.641527,-0.61897,-0.660862,-0.666985,-0.626381,-0.69647,-0.671657,-0.639755,-0.691475,-0.656028,-0.668918,-0.665373,-0.670368,-0.681002,-0.650711,-0.670852,-0.705171,-0.668757,-0.698404,-0.695987,-0.68632,-0.705493,-0.674719,-0.712744,-0.728373,-0.707266,-0.704365,-0.719672,-0.701143,-0.716772,-0.731756,-0.7208,-0.707105,-0.724989,-0.71935,-0.730467,-0.724506,-0.705816,-0.740779,-0.731756,-0.698565,-0.710649,-0.702271,-0.711294,-0.696954,-0.699048,-0.702754,-0.708071,-0.680036,-0.714355,-0.705332,-0.686803,-0.699693,-0.678263,-0.70646,-0.708071,-0.710488,-0.710971,-0.726439,-0.68632,-0.704849,-0.718222,-0.70356,-0.724506,-0.705493,-0.721445,-0.69357,-0.737074,-0.716127,-0.715,-0.695342,-0.694859,-0.700337,-0.673752,-0.69357,-0.663762,-0.681325,-0.678747,-0.660701,-0.634115,-0.674396,-0.647328,-0.614458,-0.653128,-0.613653,-0.624448,-0.630087,-0.610913,-0.626704,-0.61188,-0.630087,-0.622353,-0.607208,-0.636371,-0.647972,-0.587873,-0.638788,-0.61897,-0.62477,-0.648778,-0.620259,-0.608658,-0.637821,-0.613975,-0.614136,-0.646039,-0.584167,-0.627509,-0.616875,-0.620742,-0.621709,-0.624287,-0.624931,-0.658123,-0.630732,-0.629926,-0.662473,-0.641688,-0.675846,-0.683097,-0.651033,-0.64765,-0.679875,-0.66779,-0.676813,-0.671979,-0.670368,-0.679391,-0.66489,-0.692281,-0.676491,-0.666018,-0.71226,-0.678908,-0.682453,-0.702754,-0.687609,-0.698726,-0.727567,-0.687447,-0.69212,-0.7237,-0.675041,-0.691959,-0.69212,-0.701143,-0.69792,-0.704365,-0.68777,-0.701143,-0.705332,-0.687931,-0.692926,-0.692764,-0.706782,-0.696309,-0.687286,-0.692281,-0.69792,-0.680841,-0.718383,-0.713227,-0.659734,-0.711294,-0.68213,-0.688414,-0.714355,-0.698887,-0.711294,-0.705171,-0.69647,-0.72515,-0.71081,-0.702915,-0.746902,-0.709199,-0.706299,-0.715966,-0.714355,-0.723056,-0.731434,-0.709199,-0.750286,-0.718061,-0.71935,-0.766559,-0.719511,-0.745291,-0.742068,-0.744324,-0.747063,-0.726601,-0.767043,-0.773004,-0.763176,-0.771071,-0.766559,-0.768332,-0.783961,-0.783477,-0.781705,-0.771554,-0.795723,-0.77526,-0.793628,-0.784605,-0.761726,-0.783155,-0.774132,-0.767526,-0.775582,-0.773004,-0.761564,-0.782349,-0.772199,-0.796045,-0.757859,-0.753669,-0.7867,-0.739007,-0.775904,-0.775904,-0.76092,-0.747869,-0.758664,-0.747386,-0.765593,-0.749319,-0.735946,-0.752864,-0.726278,-0.744808,-0.733529,-0.711777,-0.738846,-0.75383,-0.73224,-0.730145,-0.7208,-0.725312,-0.737396,-0.722734,-0.729178,-0.736268,-0.729017,-0.728856,-0.733207,-0.74948,-0.740457,-0.74948,-0.759631,-0.757859,-0.761726,-0.768493,-0.767204,-0.774293,-0.759953,-0.768654,-0.749641,-0.782672,-0.790889,-0.757214,-0.781866,-0.781544,-0.750447,-0.771071,-0.77526,-0.76672,-0.770426,-0.752058,-0.742068,-0.76527,-0.727406,-0.741907,-0.741263,-0.733045,-0.725312,-0.728856,-0.717094,-0.726117,-0.714194,-0.705332,-0.731273,-0.679069,-0.707105,-0.690992,-0.699854,-0.70791,-0.711777,-0.701626,-0.699371,-0.712905,-0.680519,-0.715161,-0.674235,-0.715,-0.726439,-0.707427,-0.695342,-0.724506,-0.70936,-0.704365,-0.71081,-0.717739,-0.738201,-0.724023,-0.729984,-0.697759,-0.723539,-0.719672,-0.70791,-0.691637,-0.712422,-0.704688,-0.69212,-0.737396,-0.703882,-0.695181,-0.710971,-0.727245,-0.704365,-0.700498,-0.695987,-0.727084,-0.685997,-0.703721,-0.727406,-0.69067,-0.720961,-0.718867,-0.696793,-0.719672,-0.706299,-0.71081,-0.724023,-0.72934,-0.716933,-0.726439,-0.726278,-0.710005,-0.718705,-0.733529,-0.722411,-0.727567,-0.724023,-0.725634,-0.736912,-0.726278,-0.77091,-0.72789,-0.736268,-0.741585,-0.710327,-0.733368,-0.737718,-0.717255,-0.730629,-0.724506,-0.698565,-0.714838,-0.713872,-0.695342,-0.701949,-0.706943,-0.705816,-0.676813,-0.690831,-0.69357,-0.681486,-0.685192,-0.710649,-0.691637,-0.69067,-0.708716,-0.70211,-0.710649,-0.69792,-0.692764,-0.711294,-0.708394,-0.714838,-0.7179,-0.713711,-0.723539,-0.725634,-0.725312,-0.730629,-0.73804,-0.746419,-0.739007,-0.73514,-0.737718,-0.744324,-0.749641,-0.715322,-0.748997,-0.762048,-0.731434,-0.761887,-0.784444,-0.788633,-0.791372,-0.772521,-0.799429,-0.809579,-0.787344,-0.830042,-0.797173,-0.820536,-0.81393,-0.811029,-0.819086,-0.831976,-0.812641,-0.83262,-0.838259,-0.82118,-0.845027,-0.83262,-0.825692,-0.828914,-0.829559,-0.807324,-0.826659,-0.830687,-0.807968,-0.838421,-0.804423,-0.810385,-0.794111,-0.805068,-0.805068,-0.805551,-0.789761,-0.790083,-0.767204,-0.76382,-0.778321,-0.739168,-0.745774,-0.767365,-0.748352,-0.762692,-0.748997,-0.745774,-0.739652,-0.744485,-0.735623,-0.742068,-0.701626,-0.740941,-0.715966,-0.720317,-0.727728,-0.721445,-0.712422,-0.713227,-0.708716,-0.706621,-0.706782,-0.710005,-0.725634,-0.695826,-0.72934,-0.710166,-0.724023,-0.723217,-0.717094,-0.741746,-0.721283,-0.762853,-0.713549,-0.755925,-0.730629,-0.731756,-0.733368,-0.752541,-0.731112,-0.755764,-0.739329,-0.754636,-0.774777,-0.757375,-0.747386,-0.737557,-0.722895,-0.735301,-0.724345,-0.7179,-0.738846,-0.680358,-0.710166,-0.718383,-0.68068,-0.711777,-0.68632,-0.675524,-0.700982,-0.717578,-0.666501,-0.671818,-0.67343,-0.668757,-0.684869,-0.633149,-0.669079,-0.648939,-0.65909,-0.654739,-0.6462,-0.648294,-0.638788,-0.616069,-0.608658,-0.651678,-0.585939,-0.618809,-0.611075,-0.619292,-0.607208,-0.629443,-0.588356,-0.612686,-0.612202,-0.576433,-0.614458,-0.591579,-0.61043,-0.615747,-0.584328,-0.580622,-0.595607,-0.579817,-0.601729,-0.573049,-0.574499,-0.589484,-0.524551,-0.578205,-0.56596,-0.545497,-0.572405,-0.555648,-0.546625,-0.568699,-0.564832,-0.529707,-0.559676,-0.508922,-0.531157,-0.537763,-0.519556,-0.525195,-0.517462,-0.520201,-0.506022,-0.525195,-0.508277,-0.488137,-0.510372,-0.509566,-0.492165,-0.513433,-0.507955,-0.485237,-0.503605,-0.496193,-0.488943,-0.504894,-0.510694,-0.491843,-0.491198,-0.522779,-0.501833,-0.499093,-0.501994,-0.532768,-0.520684,-0.52004,-0.533896,-0.541147,-0.509405,-0.53438,-0.561287,-0.52584,-0.539374,-0.55452,-0.534057,-0.560159,-0.554198,-0.550975,-0.55162,-0.56451,-0.547592,-0.53438,-0.534057,-0.563865,-0.545819,-0.54308,-0.576594,-0.577883,-0.552103,-0.581589,-0.5803,-0.561771,-0.586584,-0.563382,-0.578689,-0.586262,-0.5774,-0.563704,-0.603018,-0.56451,-0.593673,-0.595284,-0.580622,-0.571599,-0.580139,-0.573049,-0.588517,-0.576433,-0.571599,-0.577883,-0.54453,-0.582395,-0.577883,-0.558226,-0.585456,-0.550814,-0.549686,-0.57885,-0.56596,-0.554037,-0.567249,-0.561932,-0.552587,-0.56741,-0.574338,-0.568054,-0.559515,-0.573533,-0.536635,-0.570471,-0.54598,-0.549686,-0.541469,-0.568538,-0.550814,-0.528096,-0.584973,-0.540986,-0.568377,-0.556937,-0.567571,-0.532285,-0.5774,-0.535346,-0.555809,-0.588195,-0.522456,-0.571921,-0.538247,-0.54453,-0.543403,-0.535507,-0.558548,-0.551136,-0.514239,-0.541147,-0.57176,-0.505216,-0.547914,-0.526646,-0.510694,-0.529546,-0.543564,-0.530029,-0.512144,-0.522618,-0.520845,-0.53583,-0.497643,-0.533252,-0.527612,-0.539858,-0.522456,-0.511178,-0.522618,-0.538247,-0.53728,-0.508277,-0.533574,-0.521329,-0.537602,-0.529062,-0.529224,-0.541308,-0.533574,-0.526323,-0.540825,-0.529385,-0.509083,-0.542919,-0.501027,-0.562093,-0.533896,-0.555809,-0.55307,-0.529385,-0.551781,-0.57321,-0.561126,-0.527612,-0.563221,-0.535185,-0.53728,-0.557904,-0.539052,-0.531157,-0.525034,-0.534541,-0.511339,-0.503444,-0.52149,-0.509244,-0.496999,-0.477986,-0.484914,-0.480242,-0.468963,-0.462518,-0.457846,-0.461068,-0.463807,-0.442378,-0.469285,-0.453012,-0.442861,-0.446084,-0.440928,-0.427877,-0.469769,-0.427877,-0.434322,-0.456073,-0.420143,-0.450756,-0.425299,-0.440283,-0.433999,-0.424171,-0.454945,-0.442055,-0.428682,-0.455429,-0.440766,-0.434322,-0.484753,-0.487331,-0.454945,-0.496838,-0.478953,-0.497321,-0.520845,-0.527129,-0.520845,-0.528418,-0.533413,-0.545819,-0.584167,-0.567088,-0.579172,-0.592384,-0.607691,-0.57885,-0.630248,-0.617358,-0.632343,-0.624448,-0.62477,-0.634115,-0.599957,-0.628637,-0.603985,-0.59609,-0.565477,-0.55742,-0.519395,-0.538408,-0.49426,-0.497966,-0.483625,-0.426104,-0.433194,-0.389207,-0.359721,-0.350859,-0.308645,-0.27787,-0.261758,-0.210359,-0.191024,-0.168628,-0.122385,-0.107239,-0.041017,-0.023616,0.041478,0.086754,0.11334,0.195352,0.260285,0.291866,0.37694,0.429466,0.479415,0.54741,0.585274,0.627166,0.670187,0.709501,0.748816,0.792803,0.828412,0.855803,0.890123,0.916225,0.945066,0.971813,0.995982,1.012417,1.041097,1.056404,1.073645,1.097008,1.099264,1.127622,1.132617,1.150985,1.163714,1.173059,1.179665,1.193683,1.199162,1.210279,1.215919,1.223492,1.237348,1.231548,1.246855,1.247338,1.251044,1.26055,1.270379,1.27054,1.273763,1.284719,1.267962,1.257328,1.226392,1.200128,1.133422,1.06301,0.976002,0.911391,0.82954,0.747366,0.635867,0.533553,0.491499,0.331986,0.262863,0.182946,0.066936,-0.020877,-0.073887,-0.205686,-0.256763,-0.320568,-0.452206,-0.457846,-0.549042,-0.611236,-0.640883,-0.693892,-0.716289,-0.737557,-0.780416,-0.804262,-0.821341,-0.833426,-0.831976,-0.855822,-0.862106,-0.865167,-0.891591,-0.879346,-0.906093,-0.926555,-0.919788,-0.930906,-0.940895,-0.949757,-0.959264,-0.968125,-0.967803,-0.966353,-0.976504,-0.976343,-0.982788,-1.004378,-0.996805,-0.996483,-1.01469,-1.001639,-1.02178,-1.017429,-1.017913,-1.022908,-1.025163,-1.03612,-1.045787,-1.034186,-1.051588,-1.047882,-1.03902,-1.072211,-1.058677,-1.046915,-1.069956,-1.069956,-1.064477,-1.064961,-1.055455,-1.0677,-1.082846,-1.093641,-1.092835,-1.081073,-1.079301,-1.076562,-1.075595,-1.087357,-1.087518,-1.083007,-1.080429,-1.10492,-1.092513,-1.099925,-1.096702,-1.089613,-1.098152,-1.097186,-1.088968,-1.098475,-1.088485,-1.073823,-1.091063,-1.082362,-1.077367,-1.066089,-1.070439,-1.067861,-1.05191,-1.060772,-1.048848,-1.031447,-1.012918,-1.008406,-0.991005,-0.958458,-0.949274,-0.931389,-0.900937,-0.880957,-0.853566,-0.84696,-0.815058,-0.797978,-0.816185,-0.732884,-0.729501,-0.734818,-0.699371,-0.711294,-0.698565,-0.667146,-0.677458,-0.680358,-0.667307,-0.677458,-0.650872,-0.645394,-0.671496,-0.647005,-0.66779,-0.648133,-0.627026,-0.654739,-0.634599,-0.624287,-0.651033,-0.619453,-0.61333,-0.623159,-0.611075,-0.609302,-0.606402,-0.58175,-0.59899,-0.57885,-0.576916,-0.57885,-0.569182,-0.55162,-0.541791,-0.562899,-0.544047,-0.517462,-0.523584,-0.53873,-0.49571,-0.507794,-0.523101,-0.51005,-0.483625,-0.535346,-0.493454,-0.505699,-0.49571,-0.478792,-0.510372,-0.513917,-0.458007,-0.499577,-0.489104,-0.489104,-0.514884,-0.475086,-0.477825,-0.489426,-0.47138,-0.499899,-0.472025,-0.467674,-0.50151,-0.474925,-0.482336,-0.486203,-0.460424,-0.489748,-0.471863,-0.458329,-0.465257,-0.468802,-0.457201,-0.493776,-0.443989,-0.438994,-0.471541,-0.442861,-0.450434,-0.454462,-0.473958,-0.435127,-0.458168,-0.458651,-0.463002,-0.476214,-0.465257,-0.47138,-0.491521,-0.502477,-0.476214,-0.484753,-0.488459,-0.486848,-0.478631,-0.497482,-0.507955,-0.458329,-0.508761,-0.48137,-0.486203,-0.503766,-0.467352,-0.478792,-0.499738,-0.478631,-0.47573,-0.516656,-0.467835,-0.497482,-0.459779,-0.476858,-0.450756,-0.472508,-0.484914,-0.459618,-0.438994,-0.450112,-0.472347,-0.446245,-0.46139,-0.453495,-0.467191,-0.458168,-0.47573,-0.448662,-0.48717,-0.455268,-0.444633,-0.496838,-0.467191,-0.476214,-0.486848,-0.484753,-0.46848,-0.508922,-0.483142,-0.48717,-0.509405,-0.481692,-0.53164,-0.490554,-0.5086,-0.505055,-0.519395,-0.520845,-0.507794,-0.504249,-0.511339,-0.478308,-0.49007,-0.511983,-0.463807,-0.501671,-0.507633,-0.484914,-0.481853,-0.493132,-0.477019,-0.478308,-0.487976,-0.453012,-0.488137,-0.455751,-0.450273,-0.476214,-0.473475,-0.428682,-0.468319,-0.461551,-0.473636,-0.475086,-0.489104,-0.489426,-0.484914,-0.519556,-0.52149,-0.526162,-0.535024,-0.54163,-0.541469,-0.552103,-0.536958,-0.542275,-0.580944,-0.537763,-0.579172,-0.574822,-0.53873,-0.567732,-0.570149,-0.514884,-0.511983,-0.537602,-0.529707,-0.520845,-0.518751,-0.498771,-0.490232,-0.500866,-0.482336,-0.485398,-0.505538,-0.460424,-0.46703,-0.469769,-0.466546,-0.4398,-0.460907,-0.453495,-0.453495,-0.455107,-0.450273,-0.425299,-0.423204,-0.434483,-0.405319,-0.438511,-0.419981,-0.374383,-0.42981,-0.368422,-0.399035,-0.409508,-0.38534,-0.357304,-0.39678,-0.364877,-0.371,-0.351181,-0.369711,-0.364877,-0.33233,-0.365199,-0.364233,-0.334586,-0.327174,-0.357788,-0.336036,-0.333458,-0.358271,-0.316701,-0.337325,-0.320407,-0.322179,-0.312351,-0.334102,-0.299461,-0.329913,-0.307195,-0.286571,-0.298333,-0.277064,-0.295916,-0.26788,-0.277387,-0.273359,-0.257407,-0.260146,-0.252896,-0.256763,-0.223571,-0.253701,-0.209231,-0.255151,-0.22051,-0.211165,-0.234044,-0.217932,-0.18764,-0.195536,-0.185546,-0.185868,-0.218254,-0.169756,-0.209714,-0.188768,-0.206009,-0.212937,-0.203914,-0.194247,-0.215032,-0.208425,-0.190057,-0.226149,-0.207298,-0.235817,-0.219221,-0.240489,-0.227277,-0.231144,-0.239845,-0.236622,-0.230016,-0.211809,-0.253218,-0.197791,-0.251607,-0.230016,-0.241778,-0.249512,-0.228566,-0.223732,-0.264497,-0.215837,-0.219382,-0.259663,-0.186029,-0.235655,-0.232433,-0.218737,-0.215515,-0.226794,-0.212776,-0.264497,-0.228888,-0.245484,-0.276742,-0.251123,-0.282381,-0.275131,-0.264497,-0.289954,-0.288826,-0.303811,-0.299622,-0.319118,-0.317829,-0.312673,-0.312351,-0.32798,-0.338453,-0.332813,-0.345542,-0.327174,-0.322985,-0.349248,-0.369227,-0.325885,-0.364071,-0.368905,-0.354565,-0.403386,-0.371805,-0.365199,-0.390818,-0.382601,-0.370355,-0.420304,-0.385662,-0.390012,-0.400324,-0.384856,-0.408864,-0.386951,-0.40403,-0.408703,-0.39968,-0.39678,-0.401774,-0.390335,-0.41112,-0.399035,-0.374544,-0.406447,-0.417081,-0.394363,-0.417887,-0.429488,-0.390496,-0.40693,-0.420626,-0.436577,-0.417726,-0.445278,-0.432066,-0.444633,-0.449628,-0.43835,-0.471058,-0.470091,-0.500705,-0.494904,-0.525679,-0.520362,-0.517139,-0.559032,-0.518428,-0.561932,-0.573533,-0.569505,-0.581911,-0.609786,-0.585295,-0.612686,-0.613169,-0.587228,-0.644588,-0.619131,-0.630248,-0.645716,-0.63911,-0.67069,-0.656189,-0.662634,-0.668596,-0.679875,-0.671335,-0.707588,-0.694859,-0.708071,-0.718544,-0.730145,-0.715805,-0.732723,-0.751091,-0.734012,-0.783961,-0.767526,-0.779771,-0.800073,-0.785411,-0.816669,-0.828914,-0.814735,-0.829559,-0.850505,-0.849538,-0.871129,-0.877735,-0.899003,-0.926072,-0.926716,-0.94154,-0.949596,-0.974409,-0.97602,-0.966514,-0.988749,-0.992777,-0.989716,-1.015012,-1.001961,-1.015012,-1.016301,-1.018557,-1.026936,-1.046432,-1.034186,-1.038859,-1.05771,-1.061255,-1.073339,-1.050621,-1.072211,-1.081557,-1.081073,-1.090257,-1.103469,-1.105725,-1.10218,-1.119099,-1.105403,-1.112492,-1.125382,-1.112331,-1.115393,-1.116521,-1.113459,-1.144556,-1.151001,-1.140528,-1.147456,-1.128766,-1.136178,-1.131505,-1.151162,-1.156963,-1.157768,-1.142945,-1.136178,-1.151807,-1.147779,-1.157124,-1.168886,-1.171947,-1.17098,-1.153257,-1.164052,-1.148423,-1.143106,-1.16663,-1.156802,-1.184515,-1.180809,-1.164052,-1.171142,-1.179359,-1.163085,-1.156157,-1.170336,-1.160668,-1.158896,-1.154224,-1.166791,-1.175331,-1.152129,-1.162763,-1.175814,-1.157607,-1.170497,-1.176781,-1.16808,-1.167758,-1.16228,-1.160024,-1.151968,-1.160185,-1.161152,-1.159863,-1.158896,-1.167275,-1.165502,-1.155351,-1.170336,-1.16808,-1.14939,-1.162602,-1.144878,-1.158091,-1.139722,-1.136822,-1.14794,-1.152773,-1.131827,-1.133439,-1.120226,-1.119904,-1.128283,-1.095736,-1.112492,-1.093641,-1.109109,-1.11362,-1.078495,-1.092674,-1.094608,-1.067217,-1.063027,-1.081879,-1.039826,-1.062866,-1.045626,-1.042887,-1.02758,-1.048526,-1.044498,-1.025647,-1.02178,-0.998739,-1.02323,-1.009373,-1.035797,-1.013723,-0.994066,-1.025324,-1.007601,-0.996161,-1.019202,-1.002767,-0.975215,-1.026291,-0.994227,-1.00744,-1.012596,-1.012596,-0.995516,-1.018557,-0.997772,-1.002123,-1.007762,-0.966836,-1.004056,-0.962003,-1.004056,-0.973765,-0.959102,-0.970059,-0.965386,-0.949435,-0.969898,-0.951368,-0.936706,-0.980693,-0.931389,-0.943796,-0.933323,-0.968609,-0.946051,-0.938801,-0.940251,-0.940734,-0.938156,-0.939284,-0.958941,-0.931872,-0.94444,-0.953463,-0.945407,-0.930422,-0.952013,-0.927361,-0.938479,-0.935578,-0.948952,-0.942184,-0.927844,-0.921077,-0.949596,-0.927039,-0.927683,-0.945085,-0.925589,-0.94299,-0.934289,-0.931228,-0.966031,-0.922688,-0.952496,-0.935578,-0.926233,-0.964903,-0.947824,-0.937512,-0.947179,-0.947663,-0.961519,-0.968609,-0.941862,-0.962647,-0.968609,-0.959264,-0.988588,-0.972315,-0.977632,-0.972959,-0.996161,-0.982143,-0.97167,-0.98021,-0.977148,-0.963614,-0.975859,-0.971187,-0.961358,-0.966675,-0.972315,-0.976987,-0.938156,-0.957975,-0.947985,-0.94299,-0.970381,-0.94009,-0.942829,-0.953141,-0.926716,-0.935901,-0.967481,-0.956041,-0.969898,-0.938156,-0.960553,-0.958619,-0.961197,-0.973926,-0.982949,-0.960875,-0.96877,-0.960391,-0.968125,-0.97457,-0.989716,-0.986816,-0.973442,-0.963292,-0.989071,-0.970542,-0.98021,-0.953302,-0.957008,-0.928005,-0.955235,-0.94154,-0.926233,-0.949435,-0.94009,-0.914954,-0.933161,-0.939284,-0.931389,-0.945407,-0.92865,-0.933323,-0.921883,-0.915921,-0.916405,-0.912699,-0.921722,-0.928811,-0.905609,-0.931711,-0.938801,-0.924139,-0.914793,-0.913182,-0.922366,-0.934289,-0.90432,-0.931872,-0.932034,-0.917532,-0.955235,-0.969737,-0.93864,-0.940412,-0.939123,-0.916888,-0.961358,-0.93445,-0.933161,-0.943473,-0.956847,-0.939929,-0.953946,-0.94589,-0.955397,-0.962325,-0.977954,-0.960875,-0.939123,-0.976987,-0.983432,-0.956202,-0.974731,-1.001156,-0.981015,-0.977309,-1.001317,-0.986977,-1.002767,-0.986655,-0.998578,-0.982949,-0.977309,-0.980049,-0.998417,-0.98166,-0.986655,-0.996483,-0.979404,-1.015174,-0.98891,-1.006795,-0.99036,-0.963775,-0.973442,-0.971831,-0.959425,-0.96442,-0.952496,-0.952657,-0.969575,-0.95298,-0.967964,-0.946696,-0.950885,-0.950724,-0.961842,-0.954913,-0.95153,-0.949918,-0.947663,-0.95878,-0.95153,-0.938962,-0.971831,-0.949596,-0.950402,-0.967159,-0.938962,-0.937995,-0.981982,-0.943473,-0.945085,-0.94299,-0.954752,-0.942184,-0.930422,-0.949113,-0.952819,-0.919788,-0.933,-0.929294,-0.923494,-0.925266,-0.890464,-0.889175,-0.912538,-0.923655,-0.901259,-0.900776,-0.899003,-0.898842,-0.896586,-0.90287,-0.898359,-0.872257,-0.892075,-0.887402,-0.904965,-0.873223,-0.911732,-0.893847,-0.886919,-0.896425,-0.87129,-0.889658,-0.880152,-0.873707,-0.880635,-0.873546,-0.861622,-0.88418,-0.867262,-0.873223,-0.908832,-0.859044,-0.897231,-0.877574,-0.895458,-0.885791,-0.890464,-0.889658,-0.895136,-0.871773,-0.904804,-0.920433,-0.874835,-0.91286,-0.888691,-0.923011,-0.926233,-0.903837,-0.898681,-0.898036,-0.906737,-0.899487,-0.910443,-0.877735,-0.899809,-0.886758,-0.900292,-0.873062,-0.880796,-0.895781,-0.884019,-0.881924,-0.887724,-0.896586,-0.839065,-0.877735,-0.855983,-0.853244,-0.86275,-0.865651,-0.840032,-0.857433,-0.8584,-0.838904,-0.873223,-0.82263,-0.842449,-0.820536,-0.843577,-0.845993,-0.834715,-0.82118,-0.838421,-0.807001,-0.816669,-0.837293,-0.793467,-0.846799,-0.794111,-0.80539,-0.813446,-0.810063,-0.816991,-0.827303,-0.798623,-0.799106,-0.822953,-0.798301,-0.824403,-0.797978,-0.818441,-0.811191,-0.80829,-0.823919,-0.81248,-0.830687,-0.831331,-0.851633,-0.814574,-0.831976,-0.841482,-0.814896,-0.830042,-0.837132,-0.817474,-0.866778,-0.857272,-0.820052,-0.857433,-0.84261,-0.840999,-0.866134,-0.845027,-0.857917,-0.860495,-0.860656,-0.882246,-0.87564,-0.87854,-0.894975,-0.873546,-0.876285,-0.88273,-0.860817,-0.858722,-0.854372,-0.868712,-0.848571,-0.86984,-0.837293,-0.845993,-0.856305,-0.836326,-0.86275,-0.836004,-0.865006,-0.85405,-0.847282,-0.837454,-0.850183,-0.824886,-0.852761,-0.841804,-0.842126,-0.854855,-0.822792,-0.833748,-0.849377,-0.828431,-0.821986,-0.845188,-0.791695,-0.833103,-0.828431,-0.804101,-0.83407,-0.800879,-0.816991,-0.832298,-0.825531,-0.802007,-0.817152,-0.788633,-0.803618,-0.807646,-0.796851,-0.815058,-0.801201,-0.817797,-0.798462,-0.792822,-0.805551,-0.7838,-0.808613,-0.810063,-0.811996,-0.782188,-0.795884,-0.787344,-0.805551,-0.811996,-0.790889,-0.786378,-0.823597,-0.788794,-0.780738,-0.812963,-0.774615,-0.810385,-0.78815,-0.79814,-0.7867,-0.793145,-0.804907,-0.792661,-0.795078,-0.813769,-0.811674,-0.750125,-0.800718,-0.777677,-0.771393,-0.783961,-0.810385,-0.758986,-0.787344,-0.794756,-0.781544,-0.814896,-0.766398,-0.806035,-0.793628,-0.793467,-0.783155,-0.794273,-0.778966,-0.792984,-0.797012,-0.777032,-0.787183,-0.778805,-0.794917,-0.762531,-0.785572,-0.781222,-0.781544,-0.749963,-0.775582,-0.733529,-0.744485,-0.782349,-0.707105,-0.756086,-0.752703,-0.722572,-0.71935,-0.744163,-0.708877,-0.705493,-0.719028,-0.685836,-0.690992,-0.666985,-0.696309,-0.67488,-0.650711,-0.671335,-0.642816,-0.650067,-0.659734,-0.636854,-0.65055,-0.681002,-0.605274,-0.670852,-0.665535,-0.641527,-0.648455,-0.657156,-0.644588,-0.663762,-0.656673,-0.653611,-0.676491,-0.634438,-0.685192,-0.676974,-0.714033,-0.673752,-0.678586,-0.67633,-0.683419,-0.676813,-0.67069,-0.696793,-0.655867,-0.684225,-0.702593,-0.681164,-0.68068,-0.694537,-0.683742,-0.694376,-0.692603,-0.684064,-0.689059,-0.662795,-0.694537,-0.678908,-0.678586,-0.692281,-0.682614,-0.667468,-0.696631,-0.665535,-0.675041,-0.703076,-0.658284,-0.699854,-0.68922,-0.689542,-0.70211,-0.722089,-0.704849,-0.714516,-0.718061,-0.732723,-0.749158,-0.724828,-0.753992,-0.708071,-0.743841,-0.760437,-0.750286,-0.753186,-0.756247,-0.742874,-0.745774,-0.776871,-0.734012,-0.769459,-0.77526,-0.74803,-0.759148,-0.792178,-0.75657,-0.76237,-0.787183,-0.763337,-0.79959,-0.743357,-0.783477,-0.771554,-0.752219,-0.784605,-0.765109,-0.746902,-0.777193,-0.754314,-0.751252,-0.778644,-0.717094,-0.757053,-0.777838,-0.75238,-0.750608,-0.759309,-0.741746,-0.743841,-0.746902,-0.738685,-0.75802,-0.720478,-0.741746,-0.744002,-0.741585,-0.722089,-0.739329,-0.718867,-0.740457,-0.72934,-0.724184,-0.741746,-0.699209,-0.740135,-0.750447,-0.717578,-0.732723,-0.746902,-0.714516,-0.752219,-0.748513,-0.706138,-0.77381,-0.737718,-0.750286,-0.749802,-0.760759,-0.755442,-0.765109,-0.743196,-0.752058,-0.772843,-0.736268,-0.780416,-0.721767,-0.770265,-0.736268,-0.765754,-0.748352,-0.73514,-0.735301,-0.733368,-0.740296,-0.730306,-0.756086,-0.686803,-0.754797,-0.719189,-0.708877,-0.723217,-0.724989,-0.708232,-0.713066,-0.71081,-0.713872,-0.718222,-0.695987,-0.732562,-0.706299,-0.721122,-0.703076,-0.708716,-0.707266,-0.720639,-0.713388,-0.708877,-0.743357,-0.686642,-0.73079,-0.723539,-0.70211,-0.733045,-0.733851,-0.708877,-0.736429,-0.739168,-0.720478,-0.75802,-0.728695,-0.745774,-0.739813,-0.775904,-0.752058,-0.756408,-0.754153,-0.782994,-0.761564,-0.797978,-0.793789,-0.769298,-0.79959,-0.795239,-0.782994,-0.807968,-0.814413,-0.795239,-0.814252,-0.807646,-0.780416,-0.81393,-0.782833,-0.815702,-0.7896,-0.799106,-0.798462,-0.785733,-0.790889,-0.800073,-0.797173,-0.792017,-0.815702,-0.804262,-0.795723,-0.842126,-0.801684,-0.822953,-0.828914,-0.811352,-0.847121,-0.855822,-0.860333,-0.870806,-0.872901,-0.886274,-0.906415,-0.883535,-0.917371,-0.914954,-0.908348,-0.921077,-0.912699,-0.915277,-0.928489,-0.910765,-0.925911,-0.916243,-0.896586,-0.879829,-0.886435,-0.88128,-0.856305,-0.855822,-0.803457,-0.781705,-0.779771,-0.738201,-0.720317,-0.679069,-0.672624,-0.661184,-0.612202,-0.581428,-0.553714,-0.49007,-0.475086,-0.439639,-0.361977,-0.358915,-0.270781,-0.225827,-0.174912,-0.111751,-0.059386,-0.007987,0.071125,0.101578,0.179723,0.274948,0.298311,0.415609,0.467975,0.520824,0.569484,0.604126,0.644085,0.689038,0.732059,0.768956,0.808271,0.837918,0.871593,0.898179,0.927181,0.950384,0.975358,0.996304,1.019506,1.036263,1.050442,1.07155,1.090241,1.101842,1.11167,1.130039,1.139545,1.14744,1.156302,1.172254,1.182888,1.186433,1.194811,1.199484,1.209151,1.214146,1.210279,1.202545,1.193361,1.156624,1.133744,1.116182,1.025468,1.023373,0.921381,0.881261,0.803598,0.718363,0.687105,0.550793,0.486343,0.413676,0.322641,0.207114,0.17215,0.042606,-0.026838,-0.105467,-0.210198,-0.280287,-0.354887,-0.426104,-0.479597,-0.537602,-0.603824,-0.635727,-0.712744,-0.728534,-0.763659,-0.794434,-0.828753,-0.840837,-0.866134,-0.873546,-0.879346,-0.910765,-0.898198,-0.91141,-0.929294,-0.936706,-0.952174,-0.955397,-0.948307,-0.959425,-0.966675,-0.964581,-0.988105,-0.98891,-0.985366,-0.987299,-1.010179,-1.009051,-1.000834,-1.020652,-1.016301,-1.037086,-1.01034,-1.047237,-1.037086,-1.04047,-1.063511,-1.063511,-1.049171,-1.060611,-1.076078,-1.089774,-1.092352,-1.082846,-1.079462,-1.074951,-1.068344,-1.078979,-1.075595,-1.071567,-1.095413,-1.103147,-1.106692,-1.118615,-1.124254,-1.124254,-1.119743,-1.116682,-1.125543,-1.107336,-1.107659,-1.103953,-1.095413,-1.108948,-1.114265,-1.121676,-1.125382,-1.124093,-1.126832,-1.122321,-1.108625,-1.12216,-1.112976,-1.111848,-1.098636,-1.102986,-1.09638,-1.091385,-1.098314,-1.090741,-1.087357,-1.08059,-1.08784,-1.055293,-1.062544,-1.042081,-1.034992,-1.026613,-1.014529,-0.995194,-0.986332,-0.971026,-0.938317,-0.95878,-0.938156,-0.908993,-0.877574,-0.885469,-0.840837,-0.847121,-0.815058,-0.804101,-0.783477,-0.761726,-0.736107,-0.731756,-0.702593,-0.665535,-0.686964,-0.646361,-0.629443,-0.646522,-0.61188,-0.620581,-0.601729,-0.631376,-0.625737,-0.628315,-0.634276,-0.639755,-0.63911,-0.645877,-0.631537,-0.657478,-0.644105,-0.617036,-0.656995,-0.644427,-0.631054,-0.618325,-0.644105,-0.62187,-0.62042,-0.627831,-0.587228,-0.61897,-0.62042,-0.610913,-0.587067,-0.612041,-0.596573,-0.595284,-0.584167,-0.57031,-0.613653,-0.545175,-0.606724,-0.588517,-0.541952,-0.582072,-0.590612,-0.565477,-0.584811,-0.557098,-0.546625,-0.589001,-0.531479,-0.564832,-0.555487,-0.527129,-0.534541,-0.541147,-0.505861,-0.518751,-0.517462,-0.517945,-0.543241,-0.523584,-0.513917,-0.516173,-0.518428,-0.503283,-0.500382,-0.49571,-0.505538,-0.495065,-0.503444,-0.511178,-0.494421,-0.502155,-0.499255,-0.494582,-0.487976,-0.531479,-0.524229,-0.504088,-0.529062,-0.506505,-0.514722,-0.547753,-0.513595,-0.516173,-0.504733,-0.527935,-0.54453,-0.509566,-0.53873,-0.531802,-0.537924,-0.555648,-0.537441,-0.538408,-0.546303,-0.529868,-0.551781,-0.556776,-0.529546,-0.564188,-0.56306,-0.560159,-0.567249,-0.551298,-0.546142,-0.569182,-0.578528,-0.567249,-0.541791,-0.5774,-0.567088,-0.556292,-0.589806,-0.582878,-0.541308,-0.579011,-0.59029,-0.562254,-0.587712,-0.591256,-0.570149,-0.570794,-0.603663,-0.578044,-0.594962,-0.613491,-0.602857,-0.602696,-0.613814,-0.587389,-0.61043,-0.600602,-0.616553,-0.612686,-0.60608,-0.611236,-0.564188,-0.603018,-0.592706,-0.574177,-0.580944,-0.581428,-0.571116,-0.582878,-0.576272,-0.570632,-0.599474,-0.568377,-0.557904,-0.615425,-0.571277,-0.593673,-0.581106,-0.567249,-0.564832,-0.587389,-0.570955,-0.574016,-0.526807,-0.552103,-0.540663,-0.547269,-0.53019,-0.490393,-0.505538,-0.489748,-0.496999,-0.500705,-0.494904,-0.445278,-0.467996,-0.454623,-0.440766,-0.443183,-0.448662,-0.447534,-0.441894,-0.445922,-0.419981,-0.494904,-0.467674,-0.452367,-0.495226,-0.512628,-0.503927,-0.524551,-0.519395,-0.538408,-0.540019,-0.553231,-0.597057,-0.555326,-0.565154,-0.590773,-0.573855,-0.596412,-0.596412,-0.611075,-0.599635,-0.591095,-0.617842,-0.615908,-0.575305,-0.608658,-0.60318,-0.596251,-0.610591,-0.593029,-0.582072,-0.593673,-0.601085,-0.576111,-0.575305,-0.567249,-0.564188,-0.569988,-0.550492,-0.554681,-0.549364,-0.507633,-0.521973,-0.526484,-0.479275,-0.5115,-0.484431,-0.470252,-0.491037,-0.452529,-0.437866,-0.474603,-0.452206,-0.428843,-0.439477,-0.419659,-0.454623,-0.405158,-0.430455,-0.40967,-0.372289,-0.417726,-0.406447,-0.376317,-0.375511,-0.399358,-0.369389,-0.372933,-0.377284,-0.366811,-0.372772,-0.353921,-0.359882,-0.375672,-0.356015,-0.339903,-0.35247,-0.353115,-0.357626,-0.36391,-0.343931,-0.352148,-0.341353,-0.367455,-0.361332,-0.366649,-0.353598,-0.370839,-0.348442,-0.365522,-0.366649,-0.354887,-0.371644,-0.367938,-0.354082,-0.356499,-0.373739,-0.354726,-0.369872,-0.34812,-0.36246,-0.372289,-0.336036,-0.367294,-0.336036,-0.376961,-0.368905,-0.349731,-0.351504,-0.372611,-0.347798,-0.358271,-0.350215,-0.343448,-0.369227,-0.333136,-0.335875,-0.341675,-0.350537,-0.339097,-0.343448,-0.351343,-0.32524,-0.344092,-0.33668,-0.34232,-0.314929,-0.328785,-0.338614,-0.342803,-0.332974,-0.377122,-0.328624,-0.329752,-0.374222,-0.331685,-0.35521,-0.351987,-0.371483,-0.384856,-0.381634,-0.350859,-0.360527,-0.344253,-0.359882,-0.374867,-0.337325,-0.34957,-0.330074,-0.348926,-0.336841,-0.325402,-0.300911,-0.345703,-0.324757,-0.304455,-0.341997,-0.311223,-0.31799,-0.324757,-0.321051,-0.294144,-0.31364,-0.297688,-0.317023,-0.319923,-0.312834,-0.319762,-0.307356,-0.334425,-0.330558,-0.313478,-0.325563,-0.331847,-0.308,-0.360527,-0.324757,-0.313962,-0.385662,-0.322824,-0.333297,-0.362138,-0.353437,-0.369389,-0.36391,-0.360204,-0.371322,-0.388885,-0.392752,-0.387757,-0.369872,-0.410314,-0.396618,-0.406769,-0.430616,-0.424815,-0.422398,-0.444795,-0.444956,-0.445439,-0.471702,-0.462518,-0.452045,-0.487009,-0.471058,-0.50151,-0.509728,-0.528418,-0.506827,-0.515528,-0.516978,-0.521812,-0.554037,-0.522456,-0.555003,-0.539213,-0.563543,-0.563221,-0.550975,-0.551781,-0.553392,-0.517139,-0.570149,-0.540986,-0.528579,-0.560321,-0.548075,-0.543241,-0.557904,-0.534057,-0.57885,-0.572727,-0.573694,-0.596412,-0.618486,-0.613491,-0.636371,-0.632021,-0.650389,-0.641205,-0.672302,-0.67778,-0.714838,-0.701143,-0.715483,-0.728534,-0.743841,-0.754153,-0.759148,-0.777999,-0.774132,-0.775582,-0.796689,-0.811835,-0.796206,-0.813769,-0.830848,-0.80974,-0.845349,-0.843577,-0.84696,-0.856305,-0.865973,-0.865489,-0.889497,-0.893847,-0.896586,-0.923977,-0.936545,-0.947985,-0.956847,-0.965386,-0.983432,-0.990199,-0.995355,-0.997128,-1.008084,-1.021457,-1.031125,-1.020168,-1.035636,-1.029191,-1.050943,-1.04627,-1.047076,-1.062544,-1.069311,-1.078495,-1.081234,-1.078334,-1.069311,-1.087518,-1.083007,-1.093963,-1.090257,-1.101375,-1.104758,-1.107336,-1.095897,-1.112009,-1.114909,-1.095574,-1.130699,-1.129894,-1.132955,-1.133116,-1.131505,-1.126832,-1.135372,-1.122643,-1.130216,-1.136017,-1.135533,-1.154546,-1.141817,-1.154224,-1.143428,-1.149873,-1.153579,-1.136339,-1.140206,-1.132472,-1.146651,-1.146167,-1.160507,-1.15374,-1.169369,-1.158091,-1.160185,-1.151323,-1.161796,-1.150195,-1.137789,-1.158574,-1.139561,-1.142945,-1.163085,-1.14375,-1.146973,-1.156963,-1.147295,-1.150034,-1.153096,-1.154707,-1.15938,-1.130861,-1.153418,-1.153418,-1.151162,-1.154707,-1.1423,-1.141011,-1.151323,-1.127799,-1.13505,-1.152451,-1.116682,-1.136983,-1.131344,-1.138917,-1.130216,-1.131183,-1.124093,-1.130861,-1.116682,-1.090418,-1.116521,-1.099925,-1.101536,-1.095897,-1.093319,-1.084779,-1.088646,-1.085262,-1.077851,-1.064639,-1.04482,-1.095413,-1.045787,-1.073017,-1.044176,-1.015496,-1.037086,-1.027419,-1.002123,-1.025163,-1.013885,-0.981821,-1.012434,-0.971026,-0.995194,-0.975054,-0.960714,-0.958136,-0.976343,-0.966353,-0.948307,-0.916566,-0.957813,-0.941701,-0.915438,-0.921561,-0.910443,-0.895458,-0.882569,-0.898359,-0.892236,-0.880313,-0.865167,-0.868873,-0.850666,-0.836648,-0.847443,-0.841482,-0.827142,-0.830203,-0.81828,-0.821986,-0.820536,-0.830687,-0.817152,-0.836326,-0.80539,-0.796528,-0.816347,-0.796206,-0.805551,-0.811674,-0.777516,-0.794273,-0.787828,-0.807807,-0.818441,-0.804746,-0.784605,-0.793467,-0.797656,-0.801684,-0.794434,-0.798945,-0.78525,-0.791211,-0.794917,-0.798623,-0.766398,-0.781222,-0.782349,-0.791856,-0.7838,-0.769459,-0.777516,-0.782349,-0.787989,-0.779933,-0.779933,-0.773004,-0.764304,-0.781222,-0.747063,-0.777193,-0.781705,-0.753186,-0.753508,-0.782027,-0.750125,-0.760759,-0.782188,-0.74223,-0.787183,-0.749963,-0.762209,-0.771715,-0.774938,-0.782511,-0.787505,-0.796045,-0.811029,-0.817958,-0.818119,-0.819247,-0.823436,-0.838582,-0.803779,-0.81828,-0.840193,-0.825853,-0.853405,-0.842126,-0.848894,-0.844382,-0.870968,-0.836165,-0.841321,-0.85985,-0.855822,-0.831976,-0.855983,-0.833587,-0.815541,-0.83117,-0.822953,-0.856305,-0.824081,-0.800234,-0.838098,-0.840999,-0.790567,-0.82827,-0.810868,-0.813124,-0.83697,-0.796528,-0.821019,-0.803618,-0.787022,-0.814735,-0.784444,-0.763498,-0.786378,-0.774615,-0.768654,-0.772521,-0.748352,-0.760598,-0.739813,-0.77236,-0.750447,-0.736751,-0.75657,-0.754636,-0.734496,-0.762692,-0.750769,-0.741746,-0.763659,-0.74368,-0.744646,-0.757053,-0.771071,-0.743035,-0.778482,-0.777355,-0.768009,-0.786861,-0.77091,-0.794756,-0.764142,-0.819086,-0.791856,-0.800395,-0.7896,-0.834231,-0.800879,-0.796045,-0.851633,-0.788955,-0.816185,-0.816508,-0.838743,-0.807968,-0.830848,-0.812157,-0.824886,-0.82682,-0.802168,-0.82263,-0.794273,-0.820858,-0.787828,-0.794595,-0.812802,-0.792661,-0.774615,-0.789922,-0.77526,-0.778805,-0.800395,-0.776549,-0.792178,-0.787505,-0.775904,-0.777355,-0.80394,-0.793789,-0.781383,-0.791372,-0.764787,-0.825047,-0.760759,-0.784283,-0.787505,-0.77091,-0.814896,-0.799751,-0.757053,-0.780094,-0.791695,-0.792178,-0.821664,-0.806518,-0.782188,-0.80829,-0.7925,-0.816185,-0.799912,-0.801684,-0.817474,-0.801684,-0.820214,-0.843577,-0.792178,-0.819891,-0.813285,-0.787344,-0.823275,-0.802329,-0.78815,-0.82827,-0.802812,-0.790244,-0.806035,-0.784766,-0.793628,-0.811996,-0.784283,-0.781866,-0.798945,-0.78106,-0.771715,-0.780094,-0.781383,-0.804423,-0.782833,-0.768815,-0.77091,-0.762048,-0.779449,-0.757375,-0.75802,-0.768009,-0.757214,-0.722734,-0.750447,-0.74223,-0.720317,-0.743841,-0.708232,-0.744969,-0.720478,-0.711616,-0.726923,-0.728373,-0.709199,-0.734334,-0.716933,-0.720317,-0.717578,-0.687286,-0.711777,-0.712422,-0.693731,-0.702432,-0.718222,-0.686158,-0.731756,-0.721283,-0.725634,-0.692281,-0.708716,-0.721767,-0.697598,-0.700821,-0.705977,-0.681969,-0.690348,-0.66634,-0.644427,-0.652,-0.658606,-0.62622,-0.619775,-0.62042,-0.593673,-0.603018,-0.594479,-0.554359,-0.56886,-0.563704,-0.523584,-0.540019,-0.536958,-0.529385,-0.527935,-0.529062,-0.551942,-0.545497,-0.537119,-0.595446,-0.534218,-0.564026,-0.616231,-0.572244,-0.603502,-0.614619,-0.610752,-0.638466,-0.634438,-0.600763,-0.626059,-0.630571,-0.616553,-0.61333,-0.600602,-0.599313,-0.592868,-0.59464,-0.581267,-0.607046,-0.559193,-0.571599,-0.565638,-0.533735,-0.547914,-0.528418,-0.540341,-0.523584,-0.520845,-0.539213,-0.553714,-0.523262,-0.560482,-0.532124,-0.520845,-0.536313,-0.546786,-0.558226,-0.540663,-0.52439,-0.556131,-0.572083,-0.536958,-0.574499,-0.548397,-0.541791,-0.561932,-0.558065,-0.559032,-0.529868,-0.561771,-0.572244,-0.525195,-0.548075,-0.568216,-0.531318,-0.510694,-0.514078,-0.505055,-0.504733,-0.502799,-0.49007,-0.462518,-0.503605,-0.483142,-0.506183,-0.479114,-0.470736,-0.487492,-0.467352,-0.488943,-0.478308,-0.491682,-0.479275,-0.496032,-0.479597,-0.503927,-0.504572,-0.460746,-0.512467,-0.496032,-0.506827,-0.472025,-0.479759,-0.483948,-0.471058,-0.454301,-0.441733,-0.447373,-0.428521,-0.431744,-0.428199,-0.430293,-0.403708,-0.40548,-0.410959,-0.396135,-0.376317,-0.37535,-0.396296,-0.381151,-0.410797,-0.378895,-0.375995,-0.409347,-0.397907,-0.375189,-0.403547,-0.398713,-0.391301,-0.429971,-0.404675,-0.42691,-0.431421,-0.440283,-0.451723,-0.446728,-0.437705,-0.470897,-0.440283,-0.457201,-0.493937,-0.437222,-0.482014,-0.472669,-0.48427,-0.496354,-0.482014,-0.491682,-0.489265,-0.50296,-0.479114,-0.520362,-0.480886,-0.511178,-0.515528,-0.485881,-0.47428,-0.493937,-0.485559,-0.466869,-0.458329,-0.44125,-0.448662,-0.411925,-0.45559,-0.411603,-0.387918,-0.404997,-0.403547,-0.390012,-0.397424,-0.395007,-0.378734,-0.418048,-0.338614,-0.395491,-0.387596,-0.369389,-0.405803,-0.396941,-0.370355,-0.394846,-0.424332,-0.395652,-0.440444,-0.388885,-0.415792,-0.426104,-0.392913,-0.409831,-0.435288,-0.413698,-0.403225,-0.399519,-0.410636,-0.428199,-0.381956,-0.418854,-0.395813,-0.415953,-0.414342,-0.410314,-0.414664,-0.429488,-0.413698,-0.424654,-0.435288,-0.395652,-0.432549,-0.409831,-0.395974,-0.421915,-0.435127,-0.398713,-0.424332,-0.412731,-0.407897,-0.416598,-0.407897,-0.409508,-0.417887,-0.41257,-0.41402,-0.422721,-0.409831,-0.41837,-0.422559,-0.416759,-0.423848,-0.427232,-0.416437,-0.432549,-0.414664,-0.42981,-0.439639,-0.388723,-0.410153,-0.403386,-0.399358,-0.428682,-0.410153,-0.407897,-0.403869,-0.402097,-0.406286,-0.395813,-0.421109,-0.436738,-0.402419,-0.42546,-0.437061,-0.432549,-0.435611,-0.446567,-0.419015,-0.455107,-0.450112,-0.432871,-0.447211,-0.436094,-0.432066,-0.44125,-0.424815,-0.417403,-0.429004,-0.432549,-0.402902,-0.433516,-0.403063,-0.422882,-0.432227,-0.409992,-0.435772,-0.43271,-0.439316,-0.476375,-0.442217,-0.484431,-0.475086,-0.486203,-0.512789,-0.498771,-0.495388,-0.531479,-0.496999,-0.537441,-0.544691,-0.504733,-0.540825,-0.530996,-0.520362,-0.537441,-0.542919,-0.526807,-0.532607,-0.548558,-0.507472,-0.520523,-0.555487,-0.511178,-0.509728,-0.523584,-0.520684,-0.513917,-0.510211,-0.522456,-0.506988,-0.486848,-0.522779,-0.48427,-0.510855,-0.499899,-0.477342,-0.480886,-0.515206,-0.483948,-0.474603,-0.491843,-0.468158,-0.493132,-0.478631,-0.482175,-0.45559,-0.464613,-0.471541,-0.488459,-0.461229,-0.460262,-0.482981,-0.462357,-0.499093,-0.456879,-0.483303,-0.488137,-0.481692,-0.453979,-0.485881,-0.463485,-0.449145,-0.496838,-0.466063,-0.491682,-0.495549,-0.495549,-0.491037,-0.500221,-0.493615,-0.504733,-0.503283,-0.48137,-0.507794,-0.485076,-0.523423,-0.484914,-0.527612,-0.513111,-0.497643,-0.489748,-0.535024,-0.48282,-0.489104,-0.514884,-0.465741,-0.50441,-0.500221,-0.485076,-0.472025,-0.480725,-0.464935,-0.490876,-0.469124,-0.446728,-0.468319,-0.45559,-0.465741,-0.469285,-0.46284,-0.455429,-0.478953,-0.476536,-0.495871,-0.481531,-0.466546,-0.52149,-0.488137,-0.50296,-0.520684,-0.541952,-0.53438,-0.543403,-0.563704,-0.601891,-0.564832,-0.597218,-0.635404,-0.602052,-0.622998,-0.630409,-0.640399,-0.648778,-0.656834,-0.667951,-0.667629,-0.671818,-0.663279,-0.668435,-0.640399,-0.683097,-0.642655,-0.648133,-0.625092,-0.613975,-0.603824,-0.623965,-0.57176,-0.538085,-0.579494,-0.494099,-0.523584,-0.477503,-0.438511,-0.42401,-0.42981,-0.364394,-0.329591,-0.302683,-0.249351,-0.229694,-0.165566,-0.128186,-0.071148,0.002647,0.034389,0.117851,0.194869,0.234505,0.337625,0.414965,0.454763,0.519696,0.563522,0.602031,0.645212,0.688394,0.734153,0.769923,0.80666,0.83969,0.872238,0.899468,0.930565,0.954251,0.977614,1.002105,1.019345,1.041258,1.059143,1.076545,1.090402,1.110381,1.113926,1.131811,1.145023,1.158236,1.161297,1.174026,1.185144,1.194811,1.201256,1.203351,1.225425,1.215435,1.233965,1.229614,1.239765,1.250238,1.244599,1.255394,1.26329,1.256361,1.262484,1.255556,1.218174,1.200128,1.140673,1.078639,1.033363,0.941199,0.858542,0.765734,0.668253,0.560622,0.461369,0.34697,0.267375,0.135414,0.067903,-0.022971,-0.151871,-0.219543,-0.312189,-0.412731,-0.489104,-0.557259,-0.652645,-0.682291,-0.73224,-0.785411,-0.806196,-0.82118,-0.857755,-0.869679,-0.875157,-0.898036,-0.901098,-0.925266,-0.915921,-0.934612,-0.948629,-0.957813,-0.986332,-0.984077,-0.983916,-0.989555,-0.983754,-0.999706,-1.019846,-1.003573,-1.02903,-1.028225,-1.032092,-1.034992,-1.054327,-1.028547,-1.036442,-1.067217,-1.069472,-1.080429,-1.07769,-1.070761,-1.07205,-1.071889,-1.090418,-1.097508,-1.103792,-1.100086,-1.099764,-1.087035,-1.085907,-1.09058,-1.096863,-1.12941,-1.110881,-1.101214,-1.094285,-1.112654,-1.133439,-1.12796,-1.10637,-1.104436,-1.128605,-1.1336,-1.127799,-1.111848,-1.110237,-1.14649,-1.138595,-1.133439,-1.126832,-1.122321,-1.153257,-1.14939,-1.130216,-1.137467,-1.122804,-1.138272,-1.153096,-1.154868,-1.135533,-1.138756,-1.12216,-1.14649,-1.163246,-1.143267,-1.136983,-1.132955,-1.138917,-1.137467,-1.164374,-1.154385,-1.150518,-1.139239,-1.144878,-1.136339,-1.139884,-1.164858,-1.153579,-1.158896,-1.14649,-1.136178,-1.13505,-1.138111,-1.148745,-1.165502,-1.164535,-1.155513,-1.153096,-1.143267,-1.148262,-1.142784,-1.158735,-1.16953,-1.164213,-1.151968,-1.161957,-1.155674,-1.141817,-1.159702,-1.14794,-1.152612,-1.167275,-1.169853,-1.160185,-1.158735,-1.15229,-1.155835,-1.147134,-1.141978,-1.149551,-1.13505,-1.154062,-1.136822,-1.147134,-1.143428,-1.148423,-1.127155,-1.127799,-1.1365,-1.114748,-1.132311,-1.130861,-1.117326,-1.123127,-1.12506,-1.105081,-1.118454,-1.10492,-1.087518,-1.114265,-1.099119,-1.086229,-1.087357,-1.071245,-1.070922,-1.056099,-1.056099,-1.056905,-1.025002,-1.017107,-1.020491,-0.996967,-1.002284,-0.970059,-0.956686,-0.945568,-0.913182,-0.905448,-0.912699,-0.865006,-0.851794,-0.874996,-0.824725,-0.83262,-0.805229,-0.816991,-0.777032,-0.805068,-0.779127,-0.767365,-0.743519,-0.761242,-0.755603,-0.733207,-0.76382,-0.744646,-0.715966,-0.717416,-0.739329,-0.704204,-0.72789,-0.709682,-0.689703,-0.752703,-0.696309,-0.728373,-0.706299,-0.702915,-0.723378,-0.718383,-0.702754,-0.71645,-0.705816,-0.704043,-0.749963,-0.709844,-0.760598,-0.733045,-0.737718,-0.742713,-0.750447,-0.748674,-0.736107,-0.74948,-0.742391,-0.763337,-0.739652,-0.766882,-0.736429,-0.757053,-0.761242,-0.76092,-0.758503,-0.760114,-0.752541,-0.728695,-0.784927,-0.73659,-0.75947,-0.768009,-0.757859,-0.780255,-0.768493,-0.765593,-0.778805,-0.782833,-0.732401,-0.763015,-0.746741,-0.774615,-0.74513,-0.732079,-0.743196,-0.748836,-0.744163,-0.738846,-0.736107,-0.722895,-0.751897,-0.702271,-0.745291,-0.718705,-0.728695,-0.740457,-0.724828,-0.717255,-0.721928,-0.731756,-0.711777,-0.701465,-0.687609,-0.726278,-0.684064,-0.68922,-0.706782,-0.670046,-0.678908,-0.689542,-0.676974,-0.685031,-0.69502,-0.657962,-0.685836,-0.677135,-0.663601,-0.706943,-0.688092,-0.656189,-0.688253,-0.70066,-0.665535,-0.712744,-0.66199,-0.680841,-0.692926,-0.659251,-0.670046,-0.66199,-0.63766,-0.657156,-0.658284,-0.660217,-0.652161,-0.62912,-0.647972,-0.643783,-0.615264,-0.629443,-0.624931,-0.605435,-0.617197,-0.616714,-0.611397,-0.598507,-0.585134,-0.594157,-0.563865,-0.582878,-0.580139,-0.568216,-0.566282,-0.586745,-0.565477,-0.583039,-0.605596,-0.563221,-0.582717,-0.584489,-0.564832,-0.591417,-0.611075,-0.573372,-0.607691,-0.615747,-0.571599,-0.599957,-0.601568,-0.583845,-0.579978,-0.561771,-0.571277,-0.550975,-0.555326,-0.545014,-0.508922,-0.491359,-0.528901,-0.48427,-0.467513,-0.488459,-0.446728,-0.455912,-0.446084,-0.429166,-0.423043,-0.440928,-0.405641,-0.391946,-0.395813,-0.389207,-0.363266,-0.366488,-0.377284,-0.352148,-0.386145,-0.37245,-0.388723,-0.374061,-0.355371,-0.380828,-0.36246,-0.369389,-0.379539,-0.360688,-0.364716,-0.389046,-0.375028,-0.387112,-0.367455,-0.382762,-0.392268,-0.362782,-0.433516,-0.380506,-0.3797,-0.407092,-0.405158,-0.385179,-0.411603,-0.400324,-0.388079,-0.389529,-0.413214,-0.41112,-0.370355,-0.412892,-0.410314,-0.397424,-0.412086,-0.408703,-0.375995,-0.403869,-0.417081,-0.372289,-0.388079,-0.373417,-0.388562,-0.360043,-0.397585,-0.349892,-0.377122,-0.369227,-0.368905,-0.347153,-0.337325,-0.346348,-0.327335,-0.325885,-0.344253,-0.333458,-0.313478,-0.328463,-0.310578,-0.313156,-0.346831,-0.283509,-0.317184,-0.326691,-0.319118,-0.323629,-0.331041,-0.310256,-0.337164,-0.311867,-0.359399,-0.340708,-0.331685,-0.345059,-0.313801,-0.346348,-0.330396,-0.290438,-0.332008,-0.312834,-0.303328,-0.332652,-0.290921,-0.286732,-0.326691,-0.264013,-0.312512,-0.286571,-0.26643,-0.286248,-0.269169,-0.243389,-0.250479,-0.269975,-0.244034,-0.247095,-0.260791,-0.245323,-0.256602,-0.277064,-0.241295,-0.273842,-0.256924,-0.240811,-0.284798,-0.254185,-0.273036,-0.267719,-0.26353,-0.266269,-0.28367,-0.268686,-0.288665,-0.258213,-0.280448,-0.288826,-0.268203,-0.31364,-0.281737,-0.28077,-0.286732,-0.303328,-0.308484,-0.307195,-0.311384,-0.327013,-0.343286,-0.322985,-0.328302,-0.319923,-0.350859,-0.341836,-0.347798,-0.350054,-0.358432,-0.337808,-0.353115,-0.365038,-0.340064,-0.379862,-0.356982,-0.356982,-0.351987,-0.378895,-0.366811,-0.381795,-0.373255,-0.380184,-0.392107,-0.38244,-0.406608,-0.395652,-0.400163,-0.426749,-0.42691,-0.420304,-0.48137,-0.463324,-0.474603,-0.499255,-0.47428,-0.530029,-0.522134,-0.531802,-0.549203,-0.546947,-0.563221,-0.598507,-0.563543,-0.603341,-0.615425,-0.56886,-0.626865,-0.632021,-0.616875,-0.641044,-0.641527,-0.632987,-0.66199,-0.673107,-0.655384,-0.665051,-0.677941,-0.694215,-0.661184,-0.700821,-0.700498,-0.710327,-0.699854,-0.691798,-0.700176,-0.703238,-0.716127,-0.697115,-0.708877,-0.693731,-0.723539,-0.725795,-0.741263,-0.727084,-0.754153,-0.720639,-0.741585,-0.768332,-0.723378,-0.7954,-0.776871,-0.788311,-0.805229,-0.811996,-0.818763,-0.840999,-0.819247,-0.81538,-0.8555,-0.833426,-0.873707,-0.87709,-0.880152,-0.877251,-0.895781,-0.897875,-0.894975,-0.917371,-0.919305,-0.93719,-0.922688,-0.963453,-0.948629,-0.967964,-0.974893,-0.982627,-0.993261,-1.011468,-1.016624,-1.019846,-1.047559,-1.053843,-1.054649,-1.052232,-1.070922,-1.070439,-1.078979,-1.089291,-1.102986,-1.089452,-1.092513,-1.105725,-1.085262,-1.112009,-1.102825,-1.106047,-1.124577,-1.130699,-1.120226,-1.134566,-1.131183,-1.125221,-1.130377,-1.117004,-1.12361,-1.127799,-1.127155,-1.148745,-1.155996,-1.15084,-1.152935,-1.146973,-1.135211,-1.157124,-1.135372,-1.133277,-1.149551,-1.158735,-1.16518,-1.159541,-1.161796,-1.162441,-1.174364,-1.158091,-1.156479,-1.152612,-1.156802,-1.151162,-1.155351,-1.155351,-1.155674,-1.151162,-1.164052,-1.155674,-1.156963,-1.16373,-1.153257,-1.156157,-1.16808,-1.142139,-1.172431,-1.152773,-1.136017,-1.151323,-1.154868,-1.133922,-1.148745,-1.145523,-1.136178,-1.145201,-1.125543,-1.134566,-1.127155,-1.126188,-1.108625,-1.125543,-1.117971,-1.120871,-1.112815,-1.10782,-1.121354,-1.101697,-1.112976,-1.116682,-1.092191,-1.085907,-1.115715,-1.082201,-1.090418,-1.098152,-1.086551,-1.071889,-1.052554,-1.0706,-1.078012,-1.058677,-1.054327,-1.050137,-1.037892,-1.052715,-1.036281,-1.024035,-1.052715,-1.029836,-1.054649,-1.028869,-1.021296,-1.042887,-1.027741,-1.030803,-1.060772,-1.020007,-1.034186,-1.063833,-1.027741,-1.042081,-1.038698,-1.047882,-1.063672,-1.050621,-1.055777,-1.050137,-1.0619,-1.047721,-1.061094,-1.03902,-1.047398,-1.064961,-1.042242,-1.049815,-1.065283,-1.052071,-1.070922,-1.079462,-1.0648,-1.09348,-1.053521,-1.084135,-1.083168,-1.065444,-1.060933,-1.089613,-1.061416,-1.072211,-1.070439,-1.059322,-1.074789,-1.058516,-1.05916,-1.063994,-1.03193,-1.029675,-1.042081,-1.019363,-1.027258,-0.999706,-0.980532,-0.992777,-0.991166,-0.994066,-0.971992,-0.960714,-0.946696,-0.948952,-0.956041,-0.919788,-0.937673,-0.916082,-0.935578,-0.9243,-0.91721,-0.921077,-0.923494,-0.909798,-0.913827,-0.883535,-0.910926,-0.896909,-0.881924,-0.910282,-0.869517,-0.898036,-0.911732,-0.878863,-0.895136,-0.923816,-0.880796,-0.908671,-0.896264,-0.913343,-0.913182,-0.908832,-0.957491,-0.942023,-0.931711,-0.948629,-0.955558,-0.943796,-0.971026,-0.957169,-0.977309,-0.967159,-0.928489,-0.956041,-0.940251,-0.944762,-0.94444,-0.953302,-0.926555,-0.92575,-0.927844,-0.894492,-0.923816,-0.893042,-0.891591,-0.893042,-0.892236,-0.860656,-0.88708,-0.83971,-0.853083,-0.868873,-0.82537,-0.843415,-0.818441,-0.829559,-0.822308,-0.830687,-0.793306,-0.815058,-0.81538,-0.792339,-0.803134,-0.793628,-0.80684,-0.782027,-0.804907,-0.800395,-0.782833,-0.792339,-0.797817,-0.774454,-0.779771,-0.792661,-0.75657,-0.785089,-0.78525,-0.776549,-0.763498,-0.780577,-0.764304,-0.767687,-0.792984,-0.758181,-0.777838,-0.744969,-0.753025,-0.735946,-0.750447,-0.744485,-0.736751,-0.726601,-0.745774,-0.709521,-0.736107,-0.742552,-0.686803,-0.753025,-0.732562,-0.729017,-0.735623,-0.7179,-0.735301,-0.753025,-0.719672,-0.710005,-0.763337,-0.688897,-0.710488,-0.714033,-0.711294,-0.719189,-0.706299,-0.717094,-0.7208,-0.673268,-0.713549,-0.738846,-0.668274,-0.717255,-0.689703,-0.699209,-0.712583,-0.701626,-0.687125,-0.683903,-0.679391,-0.668435,-0.706621,-0.685353,-0.669724,-0.68632,-0.695342,-0.681486,-0.695987,-0.68922,-0.692764,-0.701304,-0.670529,-0.710166,-0.666824,-0.684708,-0.682291,-0.677135,-0.708071,-0.68068,-0.681647,-0.696793,-0.686642,-0.670368,-0.701143,-0.664084,-0.675041,-0.685675,-0.690348,-0.669079,-0.683903,-0.671174,-0.671335,-0.64475,-0.680841,-0.697759,-0.649744,-0.677297,-0.665373,-0.63476,-0.661023,-0.645394,-0.631376,-0.632504,-0.644105,-0.624448,-0.640883,-0.625737,-0.61897,-0.653772,-0.619292,-0.630893,-0.639271,-0.645233,-0.618164,-0.648778,-0.637016,-0.651356,-0.632826,-0.617842,-0.623481,-0.627187,-0.621709,-0.613975,-0.59029,-0.618164,-0.585456,-0.579817,-0.617681,-0.568377,-0.558709,-0.603341,-0.558065,-0.560159,-0.541147,-0.541791,-0.527451,-0.524229,-0.532607,-0.535024,-0.496515,-0.510855,-0.502316,-0.510694,-0.518267,-0.488781,-0.509083,-0.515206,-0.514561,-0.532446,-0.513272,-0.487815,-0.522779,-0.532124,-0.526968,-0.520201,-0.525195,-0.533252,-0.561448,-0.549525,-0.532607,-0.559193,-0.542597,-0.532768,-0.563543,-0.558709,-0.520362,-0.539052,-0.547431,-0.527129,-0.536152,-0.509728,-0.521973,-0.514561,-0.509083,-0.515528,-0.473314,-0.488459,-0.520362,-0.479275,-0.49861,-0.482336,-0.456234,-0.483303,-0.480564,-0.463968,-0.492487,-0.473797,-0.495388,-0.477503,-0.48137,-0.450434,-0.482014,-0.459457,-0.47573,-0.5144,-0.465902,-0.498449,-0.494099,-0.482175,-0.479114,-0.493454,-0.459618,-0.489265,-0.483948,-0.483787,-0.494421,-0.479597,-0.510372,-0.473314,-0.477342,-0.50441,-0.469285,-0.459779,-0.504088,-0.476214,-0.476214,-0.486365,-0.464452,-0.483787,-0.461551,-0.462035,-0.470413,-0.490715,-0.481692,-0.466869,-0.461551,-0.483625,-0.470574,-0.435611,-0.469447,-0.457362,-0.451562,-0.470252,-0.473152,-0.443506,-0.467996,-0.452206,-0.422882,-0.483787,-0.429166,-0.437222,-0.449467,-0.428682,-0.433999,-0.462679,-0.433033,-0.445439,-0.435933,-0.440283,-0.455268,-0.425299,-0.471058,-0.442861,-0.452045,-0.463968,-0.473314,-0.446567,-0.499738,-0.480242,-0.495226,-0.491198,-0.450756,-0.480886,-0.487976,-0.469447,-0.471541,-0.49007,-0.481853,-0.467352,-0.479275,-0.482336,-0.480886,-0.478792,-0.474441,-0.466224,-0.46139,-0.460424,-0.458812,-0.440444,-0.437222,-0.438027,-0.433516,-0.433194,-0.390335,-0.398391,-0.414181,-0.360527,-0.375189,-0.373417,-0.318957,-0.340708,-0.365199,-0.327818,-0.312189,-0.287699,-0.293177,-0.298977,-0.285282,-0.295594,-0.27497,-0.246129,-0.27787,-0.278837,-0.260469,-0.294144,-0.254829,-0.272875,-0.252412,-0.246934,-0.261596,-0.276581,-0.275131,-0.28222,-0.275292,-0.301877,-0.320085,-0.252412,-0.324918,-0.310578,-0.307678,-0.339419,-0.335714,-0.317829,-0.334102,-0.354404,-0.334102,-0.376639,-0.336036,-0.33668,-0.353921,-0.329269,-0.314284,-0.329913,-0.319279,-0.318473,-0.3051,-0.295755,-0.312995,-0.253701,-0.308161,-0.284959,-0.247579,-0.284637,-0.262724,-0.243873,-0.300105,-0.254668,-0.235494,-0.290599,-0.240167,-0.291082,-0.257407,-0.257891,-0.281092,-0.26933,-0.264658,-0.275775,-0.269814,-0.298655,-0.292855,-0.293177,-0.315573,-0.293982,-0.310739,-0.338775,-0.337808,-0.324918,-0.349731,-0.356499,-0.326207,-0.353921,-0.37535,-0.35811,-0.380506,-0.403869,-0.392752,-0.404352,-0.392268,-0.403063,-0.403386,-0.400485,-0.420948,-0.409347,-0.408219,-0.427393,-0.375833,-0.390979,-0.407092,-0.392107,-0.405964,-0.410797,-0.371966,-0.391463,-0.389046,-0.402741,-0.402902,-0.366649,-0.400002,-0.382278,-0.374383,-0.405158,-0.397263,-0.372933,-0.402097,-0.384534,-0.397102,-0.399519,-0.407092,-0.411925,-0.427071,-0.400002,-0.395007,-0.435772,-0.395813,-0.421593,-0.436416,-0.427554,-0.429488,-0.429166,-0.442217,-0.425621,-0.416114,-0.414181,-0.446728,-0.386145,-0.417887,-0.42127,-0.381795,-0.457362,-0.424171,-0.397102,-0.417565,-0.406125,-0.396941,-0.389851,-0.414503,-0.410636,-0.411764,-0.388401,-0.396296,-0.35666,-0.41402,-0.398874,-0.394846,-0.375672,-0.385662,-0.370516,-0.379862,-0.390012,-0.371483,-0.393718,-0.385501,-0.412892,-0.385662,-0.405641,-0.401774,-0.427393,-0.412409,-0.396457,-0.420143,-0.408542,-0.461551,-0.423043,-0.440444,-0.437222,-0.437061,-0.440928,-0.476697,-0.443022,-0.424815,-0.479114,-0.43126,-0.466224,-0.428682,-0.435288,-0.439961,-0.440928,-0.443183,-0.460424,-0.419498,-0.42401,-0.439961,-0.403869,-0.446245,-0.401452,-0.434805,-0.421754,-0.420465,-0.43835,-0.422237,-0.432549,-0.43416,-0.439155,-0.411442,-0.448984,-0.433033,-0.437061,-0.424171,-0.442055,-0.428038,-0.410959,-0.431905,-0.434644,-0.458812,-0.438833,-0.429327,-0.453818,-0.446406,-0.451562,-0.46139,-0.466869,-0.516656,-0.493937,-0.528579,-0.553876,-0.532285,-0.55742,-0.584811,-0.574016,-0.63331,-0.636854,-0.625576,-0.663923,-0.667468,-0.683742,-0.716289,-0.698565,-0.710166,-0.716772,-0.694053,-0.707105,-0.688575,-0.676491,-0.668435,-0.648294,-0.613975,-0.611719,-0.564026,-0.543564,-0.552264,-0.503605,-0.474119,-0.461229,-0.434805,-0.430777,-0.395491,-0.351181,-0.34377,-0.321051,-0.261919,-0.231627,-0.19038,-0.171528,-0.118679,-0.078398,-0.019104,0.041156,0.124296,0.120268,0.189552,0.274303,0.30685,0.393535,0.452185,0.495205,0.539192,0.577701,0.614921,0.656652,0.6979,0.741887,0.780074,0.813427,0.848552,0.874171,0.902529,0.930404,0.956829,0.982609,1.003877,1.022246,1.043675,1.060432,1.072678,1.092657,1.104903,1.120693,1.132939,1.14309,1.150179,1.164519,1.175798,1.17886,1.193522,1.184821,1.205445,1.210763,1.21898,1.226392,1.233642,1.222203,1.242343,1.244438,1.239121,1.262967,1.251205,1.245566,1.228648,1.201901,1.150179,1.110703,1.022407,0.96134,0.860959,0.786036,0.683721,0.556271,0.51889,0.363083,0.265119,0.179401,0.074831,-0.031994,-0.109495,-0.206814,-0.291082,-0.364877,-0.469769,-0.527129,-0.59174,-0.660701,-0.708071,-0.743357,-0.779449,-0.810546,-0.830687,-0.860011,-0.868228,-0.871612,-0.892397,-0.895942,-0.915277,-0.930422,-0.927522,-0.938801,-0.948307,-0.959908,-0.969092,-0.966514,-0.980049,-0.971509,-0.978115,-1.005828,-1.000995,-0.995678,-1.018557,-1.016624,-1.003573,-1.029514,-1.011629,-1.040148,-1.023552,-1.046915,-1.053682,-1.034186,-1.058677,-1.073178,-1.050943,-1.058516,-1.073178,-1.079301,-1.091385,-1.062222,-1.071567,-1.068506,-1.074306,-1.076884,-1.095091,-1.090096,-1.090902,-1.09783,-1.099119,-1.107014,-1.107981,-1.107336,-1.105564,-1.108142,-1.103469,-1.107659,-1.105403,-1.103953,-1.106047,-1.103469,-1.106853,-1.089129,-1.114909,-1.101214,-1.105242,-1.106209,-1.118776,-1.118454,-1.127316,-1.129894,-1.119099,-1.124093,-1.119743,-1.125705,-1.104114,-1.108625,-1.106047,-1.106209,-1.111687,-1.10492,-1.118293,-1.116198,-1.129894,-1.120549,-1.121193,-1.112492,-1.121676,-1.109753,-1.109109,-1.103308,-1.107175,-1.116359,-1.105725,-1.103953,-1.117971,-1.111203,-1.113459,-1.114909,-1.108464,-1.115554,-1.100569,-1.092674,-1.108787,-1.071245,-1.098797,-1.085424,-1.08639,-1.092352,-1.074145,-1.0677,-1.068667,-1.053843,-1.041759,-1.042404,-1.012273,-1.028063,-0.9931,-0.98311,-0.975376,-0.975698,-0.94009,-0.941379,-0.921399,-0.920916,-0.894492,-0.873384,-0.883696,-0.821664,-0.84841,-0.820536,-0.820858,-0.813285,-0.827142,-0.763659,-0.785733,-0.795239,-0.760437,-0.797012,-0.768654,-0.723378,-0.748997,-0.756892,-0.726278,-0.750447,-0.721767,-0.756731,-0.764787,-0.734012,-0.766398,-0.743196,-0.744646,-0.735946,-0.742068,-0.756086,-0.753025,-0.719511,-0.740135,-0.75238,-0.747063,-0.773971,-0.735623,-0.768976,-0.751736,-0.751091,-0.755119,-0.756892,-0.735946,-0.749641,-0.761887,-0.726117,-0.766559,-0.745935,-0.723217,-0.707266,-0.727245,-0.715966,-0.718544,-0.713227,-0.666985,-0.70791,-0.669563,-0.668274,-0.668918,-0.653772,-0.66489,-0.660056,-0.659251,-0.683097,-0.679713,-0.626704,-0.674396,-0.628476,-0.648455,-0.665857,-0.642816,-0.639594,-0.652806,-0.630087,-0.623965,-0.647811,-0.649905,-0.637821,-0.618325,-0.62187,-0.621064,-0.613975,-0.61752,-0.607691,-0.599313,-0.621064,-0.585939,-0.592868,-0.61188,-0.561126,-0.614942,-0.600763,-0.57031,-0.568054,-0.593834,-0.572566,-0.561448,-0.57176,-0.544208,-0.597057,-0.580622,-0.54453,-0.563865,-0.56886,-0.55742,-0.588839,-0.566765,-0.567088,-0.554198,-0.554198,-0.590451,-0.560643,-0.542114,-0.553876,-0.550653,-0.57176,-0.550009,-0.546786,-0.557743,-0.548558,-0.526484,-0.579494,-0.54453,-0.532929,-0.571921,-0.554842,-0.562415,-0.544853,-0.542275,-0.558065,-0.550492,-0.541308,-0.528096,-0.525034,-0.520684,-0.516173,-0.506666,-0.494904,-0.496838,-0.488298,-0.490393,-0.470252,-0.447695,-0.486848,-0.464291,-0.442055,-0.458007,-0.430132,-0.446245,-0.45994,-0.403869,-0.438833,-0.43416,-0.366327,-0.433033,-0.425621,-0.379539,-0.404836,-0.3768,-0.371483,-0.386145,-0.369227,-0.350376,-0.373739,-0.357626,-0.353115,-0.361816,-0.355854,-0.366488,-0.368261,-0.366811,-0.352793,-0.396941,-0.40403,-0.398069,-0.399196,-0.398391,-0.395329,-0.400969,-0.442861,-0.400969,-0.427715,-0.417242,-0.408703,-0.405158,-0.430455,-0.393074,-0.406769,-0.427071,-0.385501,-0.389368,-0.381795,-0.382762,-0.378089,-0.38534,-0.358432,-0.371805,-0.329269,-0.330074,-0.358915,-0.30365,-0.318634,-0.30945,-0.305261,-0.299783,-0.309128,-0.301716,-0.293338,-0.284154,-0.311706,-0.293499,-0.273842,-0.311545,-0.27497,-0.281092,-0.287376,-0.287054,-0.271747,-0.284476,-0.273197,-0.266108,-0.296399,-0.300266,-0.32234,-0.283509,-0.301716,-0.289632,-0.292532,-0.295916,-0.332813,-0.311867,-0.317023,-0.331363,-0.276259,-0.33378,-0.335069,-0.338614,-0.325885,-0.317668,-0.291566,-0.334263,-0.3109,-0.313156,-0.341514,-0.313156,-0.321857,-0.291243,-0.304294,-0.323146,-0.304617,-0.304939,-0.334425,-0.301233,-0.303166,-0.308161,-0.293016,-0.298333,-0.286087,-0.296077,-0.286893,-0.308322,-0.298655,-0.292532,-0.283832,-0.307839,-0.304294,-0.245484,-0.311545,-0.293821,-0.265947,-0.310095,-0.309934,-0.262402,-0.282865,-0.284315,-0.254185,-0.320246,-0.278514,-0.286893,-0.296077,-0.293499,-0.305744,-0.303811,-0.288182,-0.354243,-0.341031,-0.30365,-0.360527,-0.302039,-0.329269,-0.338936,-0.346509,-0.347798,-0.354243,-0.350537,-0.330074,-0.35666,-0.34522,-0.3768,-0.316379,-0.380989,-0.338292,-0.31654,-0.331363,-0.347637,-0.31944,-0.317023,-0.323468,-0.311384,-0.329913,-0.303489,-0.307678,-0.307033,-0.307517,-0.276259,-0.316218,-0.28222,-0.279965,-0.293821,-0.264497,-0.302844,-0.271103,-0.286732,-0.291888,-0.288343,-0.302039,-0.316218,-0.3022,-0.316379,-0.328302,-0.325563,-0.35102,-0.325563,-0.357788,-0.361655,-0.35666,-0.376317,-0.372933,-0.389368,-0.400969,-0.404836,-0.430777,-0.41692,-0.415309,-0.41837,-0.405319,-0.431744,-0.4427,-0.432388,-0.414987,-0.441411,-0.433677,-0.400163,-0.438027,-0.431744,-0.413537,-0.437866,-0.431744,-0.417081,-0.441572,-0.425299,-0.450273,-0.453334,-0.449951,-0.453495,-0.458007,-0.492004,-0.486687,-0.479597,-0.515367,-0.498449,-0.485398,-0.524551,-0.513433,-0.501671,-0.533413,-0.521812,-0.542758,-0.554359,-0.534541,-0.569827,-0.56306,-0.542275,-0.578205,-0.565799,-0.553876,-0.584328,-0.581589,-0.596896,-0.605758,-0.607852,-0.617358,-0.610913,-0.650067,-0.623159,-0.632987,-0.641849,-0.651678,-0.640238,-0.637338,-0.642494,-0.651678,-0.674074,-0.675363,-0.650872,-0.66199,-0.68922,-0.676813,-0.691153,-0.708716,-0.6549,-0.714516,-0.697115,-0.705654,-0.703238,-0.70501,-0.711616,-0.726439,-0.700337,-0.718705,-0.739974,-0.722089,-0.756408,-0.735946,-0.749963,-0.760598,-0.761081,-0.783477,-0.782672,-0.785733,-0.805712,-0.800073,-0.785089,-0.804907,-0.782672,-0.810385,-0.795239,-0.80249,-0.800234,-0.818441,-0.798945,-0.801845,-0.830042,-0.80974,-0.838743,-0.840515,-0.832942,-0.843415,-0.860495,-0.834231,-0.860495,-0.843254,-0.849216,-0.868551,-0.841804,-0.866778,-0.846799,-0.850827,-0.856466,-0.849377,-0.843254,-0.837937,-0.824403,-0.817313,-0.820052,-0.787344,-0.794917,-0.768009,-0.793789,-0.784605,-0.748191,-0.752541,-0.74658,