-0.56076563
-1.12171233
-1.12176237
-1.12119082
-1.12000756
-1.11822841
-1.11587048
-1.11295072
-1.10948591
-1.10549267
-1.10098742
-1.09598644
-1.09050575
-1.08456121
-1.07816848
-1.07134303
-1.06410013
-1.05645485
-1.04842204
-1.04001634
-1.03125220
-1.02214386
-1.01270536
-1.00295054
-0.99289301
-0.98254616
-0.97192314
-0.96103692
-0.94990023
-0.93852560
-0.92692535
-0.91511161
-0.90309624
-0.89089089
-0.87850698
-0.86595574
-0.85324814
-0.84039494
-0.82740671
-0.81429377
-0.80106626
-0.78773407
-0.77430693
-0.76079430
-0.74720544
-0.73354934
-0.71983481
-0.70607042
-0.69226454
-0.67842537
-0.66456087
-0.65067879
-0.63678670
-0.62289193
-0.60900165
-0.59512284
-0.58126224
-0.56742643
-0.55362182
-0.53985463
-0.52613090
-0.51245648
-0.49883700
-0.48527795
-0.47178459
-0.45836206
-0.44501531
-0.43174912
-0.41856808
-0.40547665
-0.39247909
-0.37957951
-0.36678185
-0.35408986
-0.34150713
-0.32903710
-0.31668305
-0.30444813
-0.29233533
-0.28034753
-0.26848741
-0.25675756
-0.24516042
-0.23369829
-0.22237331
-0.21118747
-0.20014263
-0.18924058
-0.17848298
-0.16787137
-0.15740722
-0.14709188
-0.13692666
-0.12691276
-0.11705123
-0.10734299
-0.09778885
-0.08838952
-0.07914564
-0.07005773
-0.06112625
-0.05235153
-0.04373383
-0.03527326
-0.02696985
-0.01882353
-0.01083414
-0.00300147
0.00467478
0.01219496
0.01955950
0.02676890
0.03382371
0.04072455
0.04747212
0.05406713
0.06051040
0.06680277
0.07294514
0.07893845
0.08478371
0.09048198
0.09603433
0.10144189
0.10670583
0.11182739
0.11680786
0.12164857
0.12635084
0.13091605
0.13534561
0.13964092
0.14380343
0.14783457
0.15173583
0.15550873
0.15915488
0.16267591
0.16607348
0.16934926
0.17250493
0.17554213
0.17846255
0.18126783
0.18395966
0.18653973
0.18900976
0.19137149
0.19362668
0.19577709
0.19782449
0.19977065
0.20161735
0.20336637
0.20501947
0.20657846
0.20804511
0.20942119
0.21070848
0.21190875
0.21302379
0.21405535
0.21500516
0.21587497
0.21666650
0.21738148
0.21802160
0.21858858
0.21908416
0.21951002
0.21986784
0.22015927
0.22038596
0.22054958
0.22065176
0.22069414
0.22067832
0.22060588
0.22047836
0.22029735
0.22006441
0.21978108
0.21944890
0.21906936
0.21864393
0.21817407
0.21766120
0.21710673
0.21651204
0.21587852
0.21520754
0.21450045
0.21375856
0.21298315
0.21217549
0.21133682
0.21046840
0.20957145
0.20864719
0.20769680
0.20672143
0.20572222
0.20470030
0.20365682
0.20259288
0.20150956
0.20040792
0.19928900
0.19815383
0.19700342
0.19583878
0.19466087
0.19347066
0.19226906
0.19105697
0.18983529
0.18860489
0.18736662
0.18612131
0.18486975
0.18361275
0.18235108
0.18108549
0.17981666
0.17854527
0.17727194
0.17599731
0.17472197
0.17344653
0.17217157
0.17089769
0.16962542
0.16835532
0.16708794
0.16582385
0.16456363
0.16330782
0.16205693
0.16081145
0.15957186
0.15833861
0.15711212
0.15589277
0.15468096
0.15347707
0.15228145
0.15109442
0.14991631
0.14874739
0.14758798
0.14643836
0.14529882
0.14416964
0.14305108
0.14194336
0.14084672
0.13976137
0.13868751
0.13762532
0.13657495
0.13553655
0.13451026
0.13349619
0.13249446
0.13150518
0.13052845
0.12956436
0.12861300
0.12767446
0.12674886
0.12583631
0.12493690
0.12405069
0.12317773
0.12231802
0.12147161
0.12063851
0.11981874
0.11901232
0.11821924
0.11743951
0.11667312
0.11592005
0.11518028
0.11445379
0.11374055
0.11304051
0.11235362
0.11167984
0.11101911
0.11037138
0.10973658
0.10911466
0.10850555
0.10790916
0.10732539
0.10675415
0.10619532
0.10564877
0.10511432
0.10459179
0.10408105
0.10358193
0.10309428
0.10261794
0.10215279
0.10169868
0.10125553
0.10082323
0.10040167
0.09999072
0.09959026
0.09920015
0.09882023
0.09845037
0.09809042
0.09774025
0.09739972
0.09706866
0.09674693
0.09643439
0.09613094
0.09583648
0.09555091
0.09527409
0.09500587
0.09474610
0.09449460
0.09425122
0.09401580
0.09378819
0.09356824
0.09335577
0.09315058
0.09295249
0.09276132
0.09257692
0.09239913
0.09222782
0.09206283
0.09190404
0.09175132
0.09160453
0.09146355
0.09132825
0.09119849
0.09107412
0.09095503
0.09084106
0.09073211
0.09062803
0.09052869
0.09043396
0.09034370
0.09025779
0.09017607
0.09009839
0.09002459
0.08995450
0.08988798
0.08982488
0.08976506
0.08970837
0.08965467
0.08960382
0.08955571
0.08951021
0.08946720
0.08942651
0.08938801
0.08935157
0.08931710
0.08928450
0.08925367
0.08922451
0.08919694
0.08917087
0.08914620
0.08912283
0.08910064
0.08907953
0.08905941
0.08904018
0.08902176
0.08900407
0.08898703
0.08897059
0.08895467
0.08893921
0.08892414
0.08890940
0.08889492
0.08888063
0.08886648
0.08885240
0.08883833
0.08882419
0.08880989
0.08879535
0.08878051
0.08876530
0.08874966
0.08873355
0.08871695
0.08869980
0.08868203
0.08866359
0.08864442
0.08862443
0.08860356
0.08858175
0.08855898
0.08853522
0.08851040
0.08848446
0.08845731
0.08842891
0.08839919
0.08836814
0.08833574
0.08830200
0.08826692
0.08823055
0.08819287
0.08815387
0.08811350
0.08807171
0.08802850
0.08798383
0.08793768
0.08789002
0.08784081
0.08779004
0.08773767
0.08768369
0.08762805
0.08757070
0.08751163
0.08745083
0.08738831
0.08732408
0.08725811
0.08719038
0.08712088
0.08704959
0.08697654
0.08690174
0.08682522
0.08674701
0.08666715
0.08658564
0.08650249
0.08641770
0.08633130
0.08624330
0.08615375
0.08606264
0.08596997
0.08587571
0.08577989
0.08568253
0.08558364
0.08548322
0.08538126
0.08527774
0.08517265
0.08506600
0.08495779
0.08484805
0.08473679
0.08462405
0.08450981
0.08439408
0.08427684
0.08415808
0.08403783
0.08391611
0.08379294
0.08366836
0.08354239
0.08341506
0.08328642
0.08315652
0.08302537
0.08289298
0.08275936
0.08262448
0.08248836
0.08235101
0.08221244
0.08207265
0.08193165
0.08178942
0.08164593
0.08150117
0.08135517
0.08120797
0.08105958
0.08091004
0.08075937
0.08060762
0.08045485
0.08030114
0.08014657
0.07999121
0.07983513
0.07967836
0.07952096
0.07936293
0.07920432
0.07904513
0.07888537
0.07872507
0.07856426
0.07840298
0.07824128
0.07807917
0.07791668
0.07775385
0.07759070
0.07742726
0.07726355
0.07709960
0.07693538
0.07677088
0.07660606
0.07644089
0.07627538
0.07610955
0.07594341
0.07577695
0.07561016
0.07544303
0.07527559
0.07510786
0.07493986
0.07477159
0.07460304
0.07443426
0.07426527
0.07409612
0.07392685
0.07375749
0.07358807
0.07341859
0.07324904
0.07307945
0.07290981
0.07274014
0.07257046
0.07240081
0.07223120
0.07206165
0.07189214
0.07172265
0.07155320
0.07138381
0.07121455
0.07104543
0.07087644
0.07070758
0.07053886
0.07037029
0.07020189
0.07003366
0.06986557
0.06969761
0.06952975
0.06936195
0.06919415
0.06902632
0.06885841
0.06869042
0.06852235
0.06835422
0.06818604
0.06801781
0.06784955
0.06768124
0.06751288
0.06734446
0.06717595
0.06700735
0.06683865
0.06666988
0.06650106
0.06633223
0.06616341
0.06599461
0.06582583
0.06565709
0.06548838
0.06531970
0.06515104
0.06498241
0.06481382
0.06464527
0.06447680
0.06430837
0.06413995
0.06397150
0.06380299
0.06363444
0.06346584
0.06329723
0.06312863
0.06296007
0.06279156
0.06262313
0.06245481
0.06228659
0.06211845
0.06195041
0.06178246
0.06161464
0.06144696
0.06127946
0.06111215
0.06094504
0.06077811
0.06061138
0.06044481
0.06027842
0.06011218
0.05994604
0.05977997
0.05961395
0.05944794
0.05928192
0.05911587
0.05894975
0.05878356
0.05861731
0.05845100
0.05828468
0.05811839
0.05795217
0.05778609
0.05762015
0.05745435
0.05728870
0.05712319
0.05695784
0.05679265
0.05662763
0.05646279
0.05629812
0.05613360
0.05596921
0.05580496
0.05564084
0.05547689
0.05531314
0.05514962
0.05498634
0.05482332
0.05466055
0.05449802
0.05433574
0.05417371
0.05401195
0.05385045
0.05368921
0.05352822
0.05336745
0.05320690
0.05304659
0.05288655
0.05272678
0.05256726
0.05240800
0.05224902
0.05209035
0.05193198
0.05177388
0.05161603
0.05145840
0.05130099
0.05114378
0.05098675
0.05082986
0.05067309
0.05051643
0.05035988
0.05020346
0.05004717
0.04989102
0.04973502
0.04957917
0.04942350
0.04926800
0.04911268
0.04895754
0.04880257
0.04864772
0.04849296
0.04833823
0.04818351
0.04802875
0.04787394
0.04771906
0.04756411
0.04740908
0.04725395
0.04709871
0.04694333
0.04678777
0.04663204
0.04647610
0.04631996
0.04616361
0.04600708
0.04585040
0.04569363
0.04553682
0.04538000
0.04522317
0.04506635
0.04490955
0.04475280
0.04459609
0.04443941
0.04428274
0.04412607
0.04396936
0.04381260
0.04365573
0.04349874
0.04334160
0.04318430
0.04302684
0.04286920
0.04271139
0.04255341
0.04239528
0.04223700
0.04207859
0.04192001
0.04176127
0.04160232
0.04144316
0.04128377
0.04112417
0.04096437
0.04080440
0.04064431
0.04048412
0.04032385
0.04016351
0.04000309
0.03984261
0.03968206
0.03952147
0.03936082
0.03920009
0.03903928
0.03887835
0.03871731
0.03855618
0.03839501
0.03823383
0.03807266
0.03791152
0.03775040
0.03758929
0.03742821
0.03726716
0.03710619
0.03694534
0.03678463
0.03662407
0.03646365
0.03630340
0.03614334
0.03598347
0.03582380
0.03566430
0.03550497
0.03534579
0.03518676
0.03502789
0.03486917
0.03471063
0.03455232
0.03439430
0.03423662
0.03407931
0.03392240
0.03376592
0.03360991
0.03345439
0.03329937
0.03314489
0.03299097
0.03283763
0.03268488
0.03253272
0.03238117
0.03223020
0.03207981
0.03192998
0.03178065
0.03163179
0.03148335
0.03133529
0.03118759
0.03104026
0.03089331
0.03074674
0.03060055
0.03045473
0.03030929
0.03016421
0.03001951
0.02987516
0.02973116
0.02958752
0.02944427
0.02930144
0.02915907
0.02901720
0.02887585
0.02873503
0.02859477
0.02845507
0.02831592
0.02817731
0.02803921
0.02790161
0.02776451
0.02762791
0.02749182
0.02735624
0.02722116
0.02708654
0.02695236
0.02681858
0.02668522
0.02655225
0.02641968
0.02628749
0.02615569
0.02602425
0.02589316
0.02576243
0.02563204
0.02550196
0.02537221
0.02524281
0.02511376
0.02498506
0.02485673
0.02472875
0.02460115
0.02447393
0.02434711
0.02422071
0.02409473
0.02396918
0.02384407
0.02371937
0.02359505
0.02347109
0.02334746
0.02322413
0.02310109
0.02297833
0.02285587
0.02273366
0.02261166
0.02248984
0.02236818
0.02224670
0.02212542
0.02200436
0.02188353
0.02176293
0.02164259
0.02152253
0.02140279
0.02128336
0.02116425
0.02104545
0.02092695
0.02080874
0.02069082
0.02057314
0.02045564
0.02033830
0.02022109
0.02010402
0.01998713
0.01987042
0.01975395
0.01963770
0.01952170
0.01940595
0.01929044
0.01917517
0.01906012
0.01894528
0.01883063
0.01871619
0.01860200
0.01848807
0.01837442
0.01826103
0.01814790
0.01803504
0.01792243
0.01781009
0.01769803
0.01758625
0.01747475
0.01736355
0.01725262
0.01714196
0.01703156
0.01692140
0.01681146
0.01670173
0.01659218
0.01648280
0.01637359
0.01626455
0.01615569
0.01604700
0.01593847
0.01583010
0.01572189
0.01561382
0.01550590
0.01539813
0.01529051
0.01518308
0.01507582
0.01496871
0.01486173
0.01475483
0.01464798
0.01454119
0.01443447
0.01432780
0.01422115
0.01411450
0.01400781
0.01390109
0.01379432
0.01368752
0.01358071
0.01347391
0.01336714
0.01326043
0.01315380
0.01304724
0.01294077
0.01283438
0.01272809
0.01262194
0.01251601
0.01241036
0.01230503
0.01220007
0.01209546
0.01199125
0.01188743
0.01178402
0.01168104
0.01157849
0.01147639
0.01137472
0.01127350
0.01117272
0.01107237
0.01097243
0.01087289
0.01077377
0.01067507
0.01057679
0.01047890
0.01038136
0.01028414
0.01018725
0.01009065
0.00999435
0.00989835
0.00980268
0.00970739
0.00961252
0.00951807
0.00942404
0.00933042
0.00923719
0.00914432
0.00905180
0.00895962
0.00886777
0.00877625
0.00868502
0.00859406
0.00850334
0.00841285
0.00832258
0.00823251
0.00814265
0.00805298
0.00796349
0.00787417
0.00778497
0.00769588
0.00760683
0.00751780
0.00742879
0.00733982
0.00725094
0.00716216
0.00707349
0.00698492
0.00689646
0.00680813
0.00671995
0.00663192
0.00654404
0.00645633
0.00636877
0.00628135
0.00619406
0.00610689
0.00601985
0.00593295
0.00584619
0.00575957
0.00567309
0.00558679
0.00550071
0.00541487
0.00532926
0.00524388
0.00515869
0.00507370
0.00498889
0.00490428
0.00481988
0.00473569
0.00465173
0.00456802
0.00448457
0.00440138
0.00431846
0.00423582
0.00415347
0.00407145
0.00398977
0.00390846
0.00382754
0.00374707
0.00366708
0.00358757
0.00350856
0.00343006
0.00335206
0.00327456
0.00319754
0.00312097
0.00304482
0.00296907
0.00289369
0.00281869
0.00274404
0.00266974
0.00259576
0.00252209
0.00244874
0.00237571
0.00230303
0.00223073
0.00215881
0.00208729
0.00201615
0.00194539
0.00187503
0.00180506
0.00173546
0.00166621
0.00159733
0.00152877
0.00146055
0.00139264
0.00132506
0.00125780
0.00119085
0.00112420
0.00105785
0.00099183
0.00092617
0.00086085
0.00079585
0.00073117
0.00066679
0.00060270
0.00053888
0.00047534
0.00041207
0.00034909
0.00028641
0.00022402
0.00016191
0.00010009
0.00003859
-0.00002258
-0.00008340
-0.00014389
-0.00020405
-0.00026393
-0.00032353
-0.00038286
-0.00044191
-0.00050066
-0.00055910
-0.00061721
-0.00067497
-0.00073238
-0.00078941
-0.00084606
-0.00090231
-0.00095818
-0.00101370
-0.00106894
-0.00112393
-0.00117868
-0.00123321
-0.00128750
-0.00134157
-0.00139540
-0.00144902
-0.00150244
-0.00155568
-0.00160874
-0.00166164
-0.00171440
-0.00176701
-0.00181948
-0.00187181
-0.00192397
-0.00197593
-0.00202767
-0.00207918
-0.00213045
-0.00218150
-0.00223231
-0.00228289
-0.00233323
-0.00238330
-0.00243307
-0.00248253
-0.00253167
-0.00258045
-0.00262886
-0.00267692
-0.00272463
-0.00277200
-0.00281904
-0.00286574
-0.00291209
-0.00295813
-0.00300387
-0.00304937
-0.00309469
-0.00313987
-0.00318495
-0.00322995
-0.00327492
-0.00331984
-0.00336471
-0.00340953
-0.00345427
-0.00349895
-0.00354357
-0.00358814
-0.00363266
-0.00367711
-0.00372151
-0.00376582
-0.00381001
-0.00385403
-0.00389787
-0.00394149
-0.00398490
-0.00402809
-0.00407108
-0.00411386
-0.00415646
-0.00419888
-0.00424109
-0.00428312
-0.00432496
-0.00436665
-0.00440825
-0.00444981
-0.00449139
-0.00453303
-0.00457478
-0.00461665
-0.00465869
-0.00470087
-0.00474320
-0.00478565
-0.00482822
-0.00487091
-0.00491371
-0.00495663
-0.00499968
-0.00504286
-0.00508620
-0.00512970
-0.00517335
-0.00521718
-0.00526119
-0.00530539
-0.00534979
-0.00539439
-0.00543919
-0.00548420
-0.00552943
-0.00557488
-0.00562056
-0.00566646
-0.00571256
-0.00575885
-0.00580532
-0.00585198
-0.00589887
-0.00594600
-0.00599335
-0.00604089
-0.00608854
-0.00613625
-0.00618396
-0.00623162
-0.00627919
-0.00632665
-0.00637398
-0.00642118
-0.00646822
-0.00651509
-0.00656178
-0.00660826
-0.00665452
-0.00670052
-0.00674623
-0.00679164
-0.00683673
-0.00688150
-0.00692591
-0.00696990
-0.00701342
-0.00705642
-0.00709890
-0.00714085
-0.00718227
-0.00722317
-0.00726356
-0.00730344
-0.00734281
-0.00738164
-0.00741992
-0.00745763
-0.00749478
-0.00753136
-0.00756740
-0.00760294
-0.00763802
-0.00767266
-0.00770689
-0.00774070
-0.00777406
-0.00780692
-0.00783924
-0.00787099
-0.00790216
-0.00793276
-0.00796281
-0.00799230
-0.00802123
-0.00804959
-0.00807737
-0.00810459
-0.00813125
-0.00815736
-0.00818291
-0.00820789
-0.00823225
-0.00825597
-0.00827904
-0.00830144
-0.00832319
-0.00834432
-0.00836485
-0.00838479
-0.00840414
-0.00842289
-0.00844101
-0.00845851
-0.00847539
-0.00849167
-0.00850736
-0.00852243
-0.00853688
-0.00855074
-0.00856403
-0.00857678
-0.00858903
-0.00860076
-0.00861198
-0.00862269
-0.00863286
-0.00864249
-0.00865158
-0.00866012
-0.00866812
-0.00867560
-0.00868256
-0.00868901
-0.00869494
-0.00870032
-0.00870515
-0.00870943
-0.00871318
-0.00871643
-0.00871918
-0.00872147
-0.00872332
-0.00872475
-0.00872577
-0.00872637
-0.00872656
-0.00872631
-0.00872558
-0.00872435
-0.00872260
-0.00872034
-0.00871754
-0.00871419
-0.00871027
-0.00870576
-0.00870070
-0.00869509
-0.00868895
-0.00868231
-0.00867519
-0.00866759
-0.00865955
-0.00865107
-0.00864215
-0.00863277
-0.00862293
-0.00861264
-0.00860192
-0.00859079
-0.00857923
-0.00856723
-0.00855476
-0.00854185
-0.00852851
-0.00851479
-0.00850073
-0.00848635
-0.00847167
-0.00845667
-0.00844130
-0.00842557
-0.00840949
-0.00839306
-0.00837629
-0.00835923
-0.00834189
-0.00832433
-0.00830657
-0.00828864
-0.00827055
-0.00825232
-0.00823394
-0.00821541
-0.00819675
-0.00817793
-0.00815897
-0.00813984
-0.00812051
-0.00810098
-0.00808124
-0.00806133
-0.00804128
-0.00802113
-0.00800091
-0.00798062
-0.00796030
-0.00793995
-0.00791959
-0.00789922
-0.00787886
-0.00785853
-0.00783826
-0.00781807
-0.00779796
-0.00777793
-0.00775800
-0.00773818
-0.00771847
-0.00769890
-0.00767945
-0.00766012
-0.00764092
-0.00762186
-0.00760297
-0.00758426
-0.00756575
-0.00754747
-0.00752941
-0.00751159
-0.00749398
-0.00747658
-0.00745940
-0.00744246
-0.00742575
-0.00740930
-0.00739318
-0.00737740
-0.00736197
-0.00734691
-0.00733220
-0.00731786
-0.00730387
-0.00729023
-0.00727695
-0.00726404
-0.00725154
-0.00723950
-0.00722796
-0.00721695
-0.00720647
-0.00719652
-0.00718708
-0.00717814
-0.00716969
-0.00716173
-0.00715425
-0.00714724
-0.00714073
-0.00713475
-0.00712934
-0.00712448
-0.00712017
-0.00711638
-0.00711313
-0.00711040
-0.00710821
-0.00710656
-0.00710546
-0.00710493
-0.00710497
-0.00710561
-0.00710683
-0.00710862
-0.00711095
-0.00711380
-0.00711717
-0.00712105
-0.00712545
-0.00713037
-0.00713580
-0.00714173
-0.00714812
-0.00715499
-0.00716232
-0.00717014
-0.00717845
-0.00718722
-0.00719647
-0.00720622
-0.00721644
-0.00722712
-0.00723825
-0.00724981
-0.00726180
-0.00727421
-0.00728701
-0.00730019
-0.00731373
-0.00732762
-0.00734187
-0.00735650
-0.00737153
-0.00738695
-0.00740271
-0.00741878
-0.00743510
-0.00745168
-0.00746852
-0.00748564
-0.00750305
-0.00752073
-0.00753871
-0.00755697
-0.00757552
-0.00759432
-0.00761336
-0.00763265
-0.00765219
-0.00767198
-0.00769201
-0.00771226
-0.00773270
-0.00775332
-0.00777408
-0.00779494
-0.00781586
-0.00783682
-0.00785780
-0.00787878
-0.00789972
-0.00792057
-0.00794131
-0.00796193
-0.00798243
-0.00800282
-0.00802311
-0.00804331
-0.00806341
-0.00808341
-0.00810331
-0.00812308
-0.00814272
-0.00816220
-0.00818152
-0.00820068
-0.00821965
-0.00823846
-0.00825712
-0.00827562
-0.00829395
-0.00831211
-0.00833008
-0.00834785
-0.00836541
-0.00838275
-0.00839986
-0.00841673
-0.00843335
-0.00844970
-0.00846577
-0.00848154
-0.00849700
-0.00851215
-0.00852700
-0.00854155
-0.00855583
-0.00856981
-0.00858352
-0.00859695
-0.00861009
-0.00862295
-0.00863551
-0.00864780
-0.00865981
-0.00867159
-0.00868317
-0.00869459
-0.00870589
-0.00871707
-0.00872810
-0.00873894
-0.00874959
-0.00876003
-0.00877028
-0.00878037
-0.00879029
-0.00880007
-0.00880972
-0.00881927
-0.00882876
-0.00883824
-0.00884776
-0.00885732
-0.00886694
-0.00887659
-0.00888628
-0.00889598
-0.00890569
-0.00891539
-0.00892512
-0.00893489
-0.00894470
-0.00895456
-0.00896450
-0.00897454
-0.00898472
-0.00899505
-0.00900553
-0.00901617
-0.00902697
-0.00903795
-0.00904911
-0.00906046
-0.00907200
-0.00908376
-0.00909574
-0.00910793
-0.00912030
-0.00913283
-0.00914551
-0.00915834
-0.00917134
-0.00918451
-0.00919786
-0.00921142
-0.00922521
-0.00923924
-0.00925352
-0.00926801
-0.00928272
-0.00929764
-0.00931276
-0.00932809
-0.00934359
-0.00935922
-0.00937497
-0.00939080
-0.00940669
-0.00942262
-0.00943861
-0.00945468
-0.00947085
-0.00948713
-0.00950353
-0.00952004
-0.00953668
-0.00955344
-0.00957031
-0.00958725
-0.00960428
-0.00962141
-0.00963868
-0.00965609
-0.00967364
-0.00969136
-0.00970923
-0.00972725
-0.00974540
-0.00976367
-0.00978202
-0.00980044
-0.00981893
-0.00983751
-0.00985620
-0.00987502
-0.00989396
-0.00991300
-0.00993210
-0.00995126
-0.00997045
-0.00998964
-0.01000878
-0.01002784
-0.01004682
-0.01006570
-0.01008448
-0.01010313
-0.01012160
-0.01013985
-0.01015785
-0.01017559
-0.01019308
-0.01021031
-0.01022730
-0.01024403
-0.01026048
-0.01027658
-0.01029231
-0.01030762
-0.01032249
-0.01033689
-0.01035082
-0.01036429
-0.01037728
-0.01038979
-0.01040184
-0.01041343
-0.01042455
-0.01043521
-0.01044539
-0.01045509
-0.01046433
-0.01047314
-0.01048157
-0.01048965
-0.01049740
-0.01050483
-0.01051195
-0.01051878
-0.01052535
-0.01053170
-0.01053786
-0.01054385
-0.01054969
-0.01055534
-0.01056079
-0.01056599
-0.01057091
-0.01057555
-0.01057992
-0.01058402
-0.01058790
-0.01059159
-0.01059513
-0.01059858
-0.01060192
-0.01060515
-0.01060825
-0.01061120
-0.01061400
-0.01061664
-0.01061910
-0.01062139
-0.01062353
-0.01062558
-0.01062754
-0.01062945
-0.01063130
-0.01063307
-0.01063473
-0.01063624
-0.01063761
-0.01063882
-0.01063991
-0.01064089
-0.01064179
-0.01064259
-0.01064332
-0.01064399
-0.01064461
-0.01064519
-0.01064575
-0.01064628
-0.01064679
-0.01064725
-0.01064766
-0.01064801
-0.01064829
-0.01064849
-0.01064860
-0.01064861
-0.01064853
-0.01064837
-0.01064810
-0.01064771
-0.01064719
-0.01064651
-0.01064569
-0.01064470
-0.01064355
-0.01064221
-0.01064070
-0.01063901
-0.01063718
-0.01063521
-0.01063312
-0.01063092
-0.01062857
-0.01062607
-0.01062347
-0.01062085
-0.01061825
-0.01061571
-0.01061323
-0.01061082
-0.01060845
-0.01060604
-0.01060355
-0.01060097
-0.01059828
-0.01059543
-0.01059239
-0.01058913
-0.01058563
-0.01058186
-0.01057783
-0.01057353
-0.01056897
-0.01056414
-0.01055904
-0.01055366
-0.01054798
-0.01054198
-0.01053565
-0.01052898
-0.01052196
-0.01051458
-0.01050685
-0.01049876
-0.01049034
-0.01048158
-0.01047246
-0.01046296
-0.01045306
-0.01044271
-0.01043190
-0.01042060
-0.01040880
-0.01039648
-0.01038362
-0.01037023
-0.01035633
-0.01034196
-0.01032713
-0.01031183
-0.01029601
-0.01027966
-0.01026276
-0.01024530
-0.01022729
-0.01020871
-0.01018957
-0.01016987
-0.01014961
-0.01012879
-0.01010740
-0.01008543
-0.01006290
-0.01003979
-0.01001613
-0.00999192
-0.00996719
-0.00994195
-0.00991621
-0.00988997
-0.00986324
-0.00983600
-0.00980828
-0.00978011
-0.00975152
-0.00972254
-0.00969319
-0.00966346
-0.00963337
-0.00960290
-0.00957207
-0.00954092
-0.00950947
-0.00947771
-0.00944566
-0.00941331
-0.00938068
-0.00934773
-0.00931443
-0.00928075
-0.00924666
-0.00921219
-0.00917730
-0.00914198
-0.00910621
-0.00906999
-0.00903333
-0.00899628
-0.00895885
-0.00892107
-0.00888291
-0.00884437
-0.00880543
-0.00876608
-0.00872633
-0.00868622
-0.00864577
-0.00860502
-0.00856400
-0.00852276
-0.00848133
-0.00843972
-0.00839792
-0.00835590
-0.00831361
-0.00827101
-0.00822810
-0.00818484
-0.00814125
-0.00809731
-0.00805303
-0.00800839
-0.00796338
-0.00791799
-0.00787222
-0.00782605
-0.00777947
-0.00773252
-0.00768522
-0.00763761
-0.00758970
-0.00754154
-0.00749315
-0.00744456
-0.00739580
-0.00734686
-0.00729777
-0.00724850
-0.00719910
-0.00714957
-0.00709995
-0.00705025
-0.00700050
-0.00695069
-0.00690084
-0.00685095
-0.00680102
-0.00675103
-0.00670097
-0.00665083
-0.00660063
-0.00655040
-0.00650014
-0.00644983
-0.00639947
-0.00634907
-0.00629862
-0.00624808
-0.00619744
-0.00614671
-0.00609591
-0.00604506
-0.00599418
-0.00594329
-0.00589243
-0.00584161
-0.00579084
-0.00574012
-0.00568948
-0.00563893
-0.00558851
-0.00553823
-0.00548811
-0.00543819
-0.00538847
-0.00533897
-0.00528969
-0.00524062
-0.00519176
-0.00514309
-0.00509462
-0.00504635
-0.00499827
-0.00495040
-0.00490273
-0.00485526
-0.00480797
-0.00476084
-0.00471384
-0.00466693
-0.00462011
-0.00457337
-0.00452670
-0.00448007
-0.00443347
-0.00438688
-0.00434029
-0.00429369
-0.00424708
-0.00420047
-0.00415389
-0.00410739
-0.00406099
-0.00401473
-0.00396864
-0.00392273
-0.00387699
-0.00383139
-0.00378593
-0.00374065
-0.00369555
-0.00365066
-0.00360595
-0.00356141
-0.00351703
-0.00347282
-0.00342878
-0.00338492
-0.00334123
-0.00329772
-0.00325437
-0.00321121
-0.00316825
-0.00312552
-0.00308307
-0.00304094
-0.00299916
-0.00295774
-0.00291670
-0.00287603
-0.00283574
-0.00279582
-0.00275626
-0.00271706
-0.00267824
-0.00263983
-0.00260186
-0.00256437
-0.00252737
-0.00249087
-0.00245485
-0.00241927
-0.00238408
-0.00234925
-0.00231477
-0.00228063
-0.00224684
-0.00221340
-0.00218032
-0.00214762
-0.00211532
-0.00208342
-0.00205189
-0.00202074
-0.00198994
-0.00195948
-0.00192937
-0.00189959
-0.00187016
-0.00184104
-0.00181225
-0.00178376
-0.00175558
-0.00172771
-0.00170014
-0.00167287
-0.00164591
-0.00161927
-0.00159297
-0.00156701
-0.00154144
-0.00151627
-0.00149155
-0.00146729
-0.00144350
-0.00142020
-0.00139744
-0.00137523
-0.00135361
-0.00133258
-0.00131216
-0.00129236
-0.00127315
-0.00125449
-0.00123635
-0.00121872
-0.00120160
-0.00118503
-0.00116905
-0.00115369
-0.00113899
-0.00112496
-0.00111159
-0.00109886
-0.00108676
-0.00107525
-0.00106431
-0.00105389
-0.00104399
-0.00103457
-0.00102561
-0.00101708
-0.00100895
-0.00100121
-0.00099387
-0.00098690
-0.00098026
-0.00097396
-0.00096798
-0.00096233
-0.00095700
-0.00095199
-0.00094727
-0.00094284
-0.00093869
-0.00093483
-0.00093126
-0.00092798
-0.00092499
-0.00092227
-0.00091985
-0.00091774
-0.00091597
-0.00091454
-0.00091345
-0.00091269
-0.00091224
-0.00091209
-0.00091223
-0.00091263
-0.00091329
-0.00091418
-0.00091533
-0.00091672
-0.00091833
-0.00092015
-0.00092217
-0.00092438
-0.00092675
-0.00092925
-0.00093187
-0.00093460
-0.00093744
-0.00094038
-0.00094343
-0.00094661
-0.00094992
-0.00095339
-0.00095701
-0.00096080
-0.00096473
-0.00096880
-0.00097300
-0.00097733
-0.00098177
-0.00098630
-0.00099091
-0.00099559
-0.00100035
-0.00100523
-0.00101024
-0.00101538
-0.00102065
-0.00102604
-0.00103152
-0.00103709
-0.00104275
-0.00104850
-0.00105434
-0.00106027
-0.00106631
-0.00107245
-0.00107864
-0.00108484
-0.00109106
-0.00109729
-0.00110356
-0.00110986
-0.00111620
-0.00112259
-0.00112903
-0.00113553
-0.00114213
-0.00114883
-0.00115565
-0.00116259
-0.00116965
-0.00117682
-0.00118406
-0.00119134
-0.00119864
-0.00120596
-0.00121328
-0.00122058
-0.00122789
-0.00123524
-0.00124266
-0.00125018
-0.00125779
-0.00126550
-0.00127331
-0.00128124
-0.00128931
-0.00129751
-0.00130582
-0.00131425
-0.00132287
-0.00133170
-0.00134078
-0.00135010
-0.00135966
-0.00136944
-0.00137946
-0.00138969
-0.00140010
-0.00141067
-0.00142137
-0.00143217
-0.00144303
-0.00145395
-0.00146492
-0.00147593
-0.00148696
-0.00149800
-0.00150903
-0.00152002
-0.00153096
-0.00154182
-0.00155258
-0.00156321
-0.00157370
-0.00158404
-0.00159421
-0.00160420
-0.00161402
-0.00162365
-0.00163313
-0.00164250
-0.00165177
-0.00166098
-0.00167021
-0.00167950
-0.00168890
-0.00169840
-0.00170798
-0.00171764
-0.00172735
-0.00173710
-0.00174686
-0.00175659
-0.00176627
-0.00177585
-0.00178533
-0.00179469
-0.00180393
-0.00181305
-0.00182204
-0.00183086
-0.00183949
-0.00184790
-0.00185608
-0.00186401
-0.00187166
-0.00187902
-0.00188606
-0.00189280
-0.00189921
-0.00190529
-0.00191104
-0.00191647
-0.00192161
-0.00192645
-0.00193096
-0.00193511
-0.00193888
-0.00194225
-0.00194522
-0.00194779
-0.00194999
-0.00195180
-0.00195320
-0.00195416
-0.00195465
-0.00195467
-0.00195421
-0.00195329
-0.00195193
-0.00195012
-0.00194789
-0.00194526
-0.00194222
-0.00193879
-0.00193500
-0.00193086
-0.00192636
-0.00192151
-0.00191633
-0.00191083
-0.00190498
-0.00189874
-0.00189210
-0.00188502
-0.00187754
-0.00186968
-0.00186149
-0.00185301
-0.00184424
-0.00183518
-0.00182581
-0.00181615
-0.00180623
-0.00179604
-0.00178559
-0.00177487
-0.00176389
-0.00175265
-0.00174113
-0.00172928
-0.00171707
-0.00170445
-0.00169142
-0.00167796
-0.00166405
-0.00164967
-0.00163478
-0.00161935
-0.00160336
-0.00158676
-0.00156958
-0.00155186
-0.00153360
-0.00151482
-0.00149553
-0.00147577
-0.00145558
-0.00143501
-0.00141413
-0.00139296
-0.00137153
-0.00134989
-0.00132803
-0.00130595
-0.00128363
-0.00126104
-0.00123820
-0.00121508
-0.00119167
-0.00116799
-0.00114401
-0.00111975
-0.00109523
-0.00107044
-0.00104542
-0.00102014
-0.00099461
-0.00096882
-0.00094277
-0.00091648
-0.00088996
-0.00086322
-0.00083629
-0.00080914
-0.00078175
-0.00075410
-0.00072618
-0.00069796
-0.00066944
-0.00064063
-0.00061157
-0.00058231
-0.00055291
-0.00052341
-0.00049383
-0.00046422
-0.00043463
-0.00040508
-0.00037559
-0.00034616
-0.00031678
-0.00028746
-0.00025821
-0.00022903
-0.00019993
-0.00017090
-0.00014196
-0.00011313
-0.00008443
-0.00005586
-0.00002744
0.00000082
0.00002892
0.00005689
0.00008474
0.00011251
0.00014021
0.00016786
0.00019546
0.00022301
0.00025051
0.00027796
0.00030538
0.00033281
0.00036026
0.00038775
0.00041526
0.00044278
0.00047032
0.00049784
0.00052532
0.00055272
0.00058000
0.00060717
0.00063421
0.00066113
0.00068793
0.00071459
0.00074110
0.00076746
0.00079365
0.00081968
0.00084558
0.00087136
0.00089702
0.00092256
0.00094796
0.00097320
0.00099829
0.00102324
0.00104805
0.00107267
0.00109711
0.00112133
0.00114533
0.00116913
0.00119272
0.00121611
0.00123929
0.00126219
0.00128474
0.00130686
0.00132849
0.00134958
0.00137017
0.00139026
0.00140990
0.00142908
0.00144783
0.00146618
0.00148410
0.00150160
0.00151869
0.00153538
0.00155169
0.00156762
0.00158317
0.00159834
0.00161310
0.00162746
0.00164139
0.00165488
0.00166790
0.00168042
0.00169243
0.00170392
0.00171491
0.00172537
0.00173532
0.00174475
0.00175369
0.00176217
0.00177018
0.00177775
0.00178487
0.00179157
0.00179784
0.00180371
0.00180919
0.00181427
0.00181896
0.00182324
0.00182711
0.00183058
0.00183366
0.00183637
0.00183873
0.00184073
0.00184238
0.00184369
0.00184466
0.00184533
0.00184572
0.00184588
0.00184582
0.00184555
0.00184510
0.00184444
0.00184357
0.00184250
0.00184125
0.00183983
0.00183824
0.00183645
0.00183446
0.00183228
0.00182990
0.00182735
0.00182464
0.00182174
0.00181866
0.00181534
0.00181179
0.00180798
0.00180394
0.00179967
0.00179518
0.00179048
0.00178557
0.00178044
0.00177510
0.00176954
0.00176375
0.00175774
0.00175153
0.00174511
0.00173847
0.00173161
0.00172453
0.00171723
0.00170972
0.00170202
0.00169414
0.00168610
0.00167790
0.00166956
0.00166108
0.00165248
0.00164375
0.00163493
0.00162603
0.00161709
0.00160817
0.00159926
0.00159038
0.00158153
0.00157272
0.00156397
0.00155526
0.00154662
0.00153804
0.00152955
0.00152118
0.00151294
0.00150483
0.00149685
0.00148900
0.00148135
0.00147394
0.00146682
0.00146001
0.00145354
0.00144743
0.00144168
0.00143628
0.00143121
0.00142644
0.00142197
0.00141781
0.00141397
0.00141046
0.00140726
0.00140437
0.00140178
0.00139947
0.00139743
0.00139568
0.00139422
0.00139309
0.00139231
0.00139192
0.00139196
0.00139246
0.00139346
0.00139498
0.00139701
0.00139951
0.00140249
0.00140597
0.00140995
0.00141446
0.00141950
0.00142509
0.00143120
0.00143785
0.00144502
0.00145271
0.00146090
0.00146959
0.00147877
0.00148845
0.00149859
0.00150920
0.00152024
0.00153170
0.00154360
0.00155592
0.00156863
0.00158170
0.00159509
0.00160879
0.00162280
0.00163711
0.00165171
0.00166657
0.00168167
0.00169700
0.00171256
0.00172836
0.00174443
0.00176078
0.00177741
0.00179432
0.00181151
0.00182895
0.00184663
0.00186454
0.00188270
0.00190115
0.00191991
0.00193894
0.00195823
0.00197772
0.00199743
0.00201735
0.00203749
0.00205783
0.00207835
0.00209900
0.00211977
0.00214065
0.00216164
0.00218277
0.00220403
0.00222544
0.00224701
0.00226877
0.00229075
0.00231301
0.00233554
0.00235835
0.00238143
0.00240478
0.00242841
0.00245233
0.00247656
0.00250111
0.00252598
0.00255118
0.00257672
0.00260259
0.00262882
0.00265538
0.00268227
0.00270940
0.00273666
0.00276399
0.00279133
0.00281865
0.00284594
0.00287317
0.00290034
0.00292743
0.00295444
0.00298136
0.00300820
0.00303497
0.00306168
0.00308834
0.00311492
0.00314140
0.00316775
0.00319392
0.00321990
0.00324569
0.00327127
0.00329660
0.00332165
0.00334639
0.00337081
0.00339489
0.00341860
0.00344189
0.00346474
0.00348715
0.00350914
0.00353074
0.00355198
0.00357286
0.00359336
0.00361348
0.00363322
0.00365261
0.00367164
0.00369033
0.00370864
0.00372652
0.00374394
0.00376088
0.00377738
0.00379346
0.00380912
0.00382433
0.00383909
0.00385336
0.00386716
0.00388047
0.00389330
0.00390563
0.00391746
0.00392875
0.00393950
0.00394970
0.00395934
0.00396840
0.00397688
0.00398477
0.00399208
0.00399882
0.00400500
0.00401064
0.00401573
0.00402029
0.00402431
0.00402782
0.00403081
0.00403326
0.00403516
0.00403649
0.00403722
0.00403735
0.00403688
0.00403581
0.00403414
0.00403185
0.00402892
0.00402534
0.00402109
0.00401618
0.00401063
0.00400445
0.00399766
0.00399027
0.00398228
0.00397369
0.00396452
0.00395479
0.00394453
0.00393377
0.00392254
0.00391085
0.00389870
0.00388612
0.00387311
0.00385969
0.00384587
0.00383166
0.00381704
0.00380205
0.00378670
0.00377102
0.00375503
0.00373877
0.00372223
0.00370541
0.00368830
0.00367091
0.00365325
0.00363531
0.00361708
0.00359858
0.00357984
0.00356088
0.00354172
0.00352236
0.00350276
0.00348291
0.00346280
0.00344241
0.00342173
0.00340077
0.00337955
0.00335806
0.00333633
0.00331433
0.00329204
0.00326946
0.00324656
0.00322334
0.00319979
0.00317590
0.00315168
0.00312714
0.00310228
0.00307712
0.00305168
0.00302593
0.00299985
0.00297344
0.00294671
0.00291970
0.00289242
0.00286490
0.00283713
0.00280910
0.00278080
0.00275224
0.00272342
0.00269435
0.00266502
0.00263544
0.00260561
0.00257553
0.00254519
0.00251462
0.00248386
0.00245294
0.00242188
0.00239069
0.00235937
0.00232793
0.00229643
0.00226492
0.00223344
0.00220204
0.00217074
0.00213957
0.00210857
0.00207777
0.00204716
0.00201675
0.00198651
0.00195638
0.00192635
0.00189638
0.00186646
0.00183659
0.00180679
0.00177707
0.00174745
0.00171793
0.00168849
0.00165910
0.00162973
0.00160038
0.00157104
0.00154173
0.00151242
0.00148312
0.00145386
0.00142466
0.00139555
0.00136651
0.00133754
0.00130862
0.00127973
0.00125084
0.00122188
0.00119280
0.00116359
0.00113423
0.00110471
0.00107505
0.00104524
0.00101525
0.00098509
0.00095474
0.00092421
0.00089350
0.00086261
0.00083156
0.00080037
0.00076908
0.00073772
0.00070629
0.00067481
0.00064327
0.00061165
0.00057995
0.00054814
0.00051624
0.00048427
0.00045227
0.00042027
0.00038831
0.00035643
0.00032466
0.00029303
0.00026158
0.00023032
0.00019925
0.00016835
0.00013764
0.00010711
0.00007679
0.00004673
0.00001699
-0.00001237
-0.00004131
-0.00006983
-0.00009795
-0.00012568
-0.00015302
-0.00017995
-0.00020646
-0.00023253
-0.00025815
-0.00028333
-0.00030807
-0.00033234
-0.00035611
-0.00037935
-0.00040207
-0.00042426
-0.00044591
-0.00046702
-0.00048757
-0.00050756
-0.00052698
-0.00054580
-0.00056403
-0.00058163
-0.00059861
-0.00061495
-0.00063071
-0.00064590
-0.00066057
-0.00067475
-0.00068850
-0.00070185
-0.00071486
-0.00072756
-0.00073999
-0.00075217
-0.00076408
-0.00077575
-0.00078719
-0.00079845
-0.00080957
-0.00082056
-0.00083143
-0.00084218
-0.00085278
-0.00086323
-0.00087353
-0.00088372
-0.00089382
-0.00090385
-0.00091379
-0.00092363
-0.00093336
-0.00094294
-0.00095236
-0.00096163
-0.00097076
-0.00097976
-0.00098864
-0.00099741
-0.00100604
-0.00101455
-0.00102293
-0.00103116
-0.00103924
-0.00104714
-0.00105484
-0.00106233
-0.00106959
-0.00107660
-0.00108335
-0.00108983
-0.00109603
-0.00110192
-0.00110749
-0.00111274
-0.00111766
-0.00112226
-0.00112657
-0.00113057
-0.00113430
-0.00113777
-0.00114098
-0.00114394
-0.00114669
-0.00114924
-0.00115167
-0.00115402
-0.00115632
-0.00115862
-0.00116095
-0.00116338
-0.00116595
-0.00116867
-0.00117158
-0.00117465
-0.00117788
-0.00118127
-0.00118480
-0.00118841
-0.00119201
-0.00119555
-0.00119900
-0.00120238
-0.00120568
-0.00120892
-0.00121209
-0.00121521
-0.00121829
-0.00122133
-0.00122432
-0.00122725
-0.00123009
-0.00123284
-0.00123550
-0.00123808
-0.00124057
-0.00124297
-0.00124527
-0.00124747
-0.00124954
-0.00125150
-0.00125335
-0.00125510
-0.00125678
-0.00125842
-0.00126003
-0.00126162
-0.00126316
-0.00126465
-0.00126608
-0.00126747
-0.00126886
-0.00127030
-0.00127181
-0.00127340
-0.00127507
-0.00127683
-0.00127868
-0.00128063
-0.00128266
-0.00128475
-0.00128688
-0.00128903
-0.00129116
-0.00129327
-0.00129531
-0.00129726
-0.00129911
-0.00130087
-0.00130256
-0.00130422
-0.00130586
-0.00130750
-0.00130914
-0.00131077
-0.00131239
-0.00131395
-0.00131545
-0.00131690
-0.00131826
-0.00131953
-0.00132069
-0.00132176
-0.00132279
-0.00132382
-0.00132483
-0.00132580
-0.00132667
-0.00132738
-0.00132789
-0.00132817
-0.00132819
-0.00132796
-0.00132749
-0.00132683
-0.00132602
-0.00132508
-0.00132403
-0.00132288
-0.00132163
-0.00132030
-0.00131888
-0.00131738
-0.00131578
-0.00131407
-0.00131224
-0.00131025
-0.00130813
-0.00130585
-0.00130342
-0.00130084
-0.00129812
-0.00129529
-0.00129236
-0.00128935
-0.00128623
-0.00128302
-0.00127969
-0.00127624
-0.00127264
-0.00126886
-0.00126488
-0.00126066
-0.00125622
-0.00125157
-0.00124670
-0.00124159
-0.00123623
-0.00123063
-0.00122479
-0.00121874
-0.00121250
-0.00120609
-0.00119955
-0.00119291
-0.00118619
-0.00117938
-0.00117245
-0.00116537
-0.00115814
-0.00115075
-0.00114324
-0.00113565
-0.00112801
-0.00112034
-0.00111260
-0.00110479
-0.00109688
-0.00108888
-0.00108077
-0.00107254
-0.00106417
-0.00105566
-0.00104697
-0.00103807
-0.00102896
-0.00101963
-0.00101009
-0.00100038
-0.00099053
-0.00098057
-0.00097051
-0.00096033
-0.00095004
-0.00093962
-0.00092905
-0.00091834
-0.00090749
-0.00089648
-0.00088534
-0.00087404
-0.00086257
-0.00085092
-0.00083912
-0.00082718
-0.00081512
-0.00080297
-0.00079074
-0.00077849
-0.00076622
-0.00075395
-0.00074169
-0.00072945
-0.00071720
-0.00070494
-0.00069266
-0.00068038
-0.00066813
-0.00065594
-0.00064384
-0.00063185
-0.00061999
-0.00060825
-0.00059663
-0.00058513
-0.00057375
-0.00056250
-0.00055135
-0.00054029
-0.00052933
-0.00051847
-0.00050772
-0.00049708
-0.00048651
-0.00047600
-0.00046555
-0.00045518
-0.00044495
-0.00043489
-0.00042501
-0.00041533
-0.00040582
-0.00039646
-0.00038725
-0.00037822
-0.00036939
-0.00036081
-0.00035251
-0.00034452
-0.00033688
-0.00032960
-0.00032268
-0.00031613
-0.00030994
-0.00030412
-0.00029865
-0.00029351
-0.00028868
-0.00028416
-0.00027992
-0.00027596
-0.00027224
-0.00026875
-0.00026547
-0.00026238
-0.00025948
-0.00025677
-0.00025428
-0.00025198
-0.00024984
-0.00024786
-0.00024601
-0.00024429
-0.00024268
-0.00024117
-0.00023976
-0.00023846
-0.00023729
-0.00023627
-0.00023545
-0.00023490
-0.00023465
-0.00023474
-0.00023518
-0.00023596
-0.00023706
-0.00023844
-0.00024008
-0.00024196
-0.00024407
-0.00024638
-0.00024889
-0.00025159
-0.00025445
-0.00025746
-0.00026059
-0.00026382
-0.00026716
-0.00027061
-0.00027417
-0.00027787
-0.00028174
-0.00028578
-0.00028998
-0.00029433
-0.00029879
-0.00030336
-0.00030802
-0.00031278
-0.00031765
-0.00032260
-0.00032762
-0.00033267
-0.00033773
-0.00034277
-0.00034779
-0.00035278
-0.00035773
-0.00036264
-0.00036750
-0.00037227
-0.00037693
-0.00038146
-0.00038587
-0.00039017
-0.00039440
-0.00039855
-0.00040264
-0.00040669
-0.00041070
-0.00041468
-0.00041861
-0.00042251
-0.00042636
-0.00043019
-0.00043402
-0.00043786
-0.00044169
-0.00044550
-0.00044927
-0.00045299
-0.00045666
-0.00046031
-0.00046395
-0.00046760
-0.00047128
-0.00047502
-0.00047882
-0.00048265
-0.00048647
-0.00049026
-0.00049401
-0.00049769
-0.00050127
-0.00050472
-0.00050804
-0.00051124
-0.00051430
-0.00051723
-0.00052000
-0.00052264
-0.00052516
-0.00052755
-0.00052980
-0.00053192
-0.00053390
-0.00053578
-0.00053756
-0.00053926
-0.00054091
-0.00054254
-0.00054415
-0.00054579
-0.00054747
-0.00054924
-0.00055112
-0.00055312
-0.00055526
-0.00055756
-0.00056006
-0.00056276
-0.00056561
-0.00056856
-0.00057156
-0.00057457
-0.00057757
-0.00058058
-0.00058360
-0.00058663
-0.00058967
-0.00059270
-0.00059572
-0.00059872
-0.00060167
-0.00060455
-0.00060732
-0.00060997
-0.00061249
-0.00061486
-0.00061707
-0.00061909
-0.00062091
-0.00062252
-0.00062393
-0.00062514
-0.00062616
-0.00062696
-0.00062751
-0.00062780
-0.00062781
-0.00062753
-0.00062693
-0.00062600
-0.00062472
-0.00062309
-0.00062114
-0.00061887
-0.00061630
-0.00061346
-0.00061038
-0.00060709
-0.00060357
-0.00059983
-0.00059584
-0.00059160
-0.00058711
-0.00058239
-0.00057745
-0.00057230
-0.00056691
-0.00056128
-0.00055538
-0.00054920
-0.00054275
-0.00053600
-0.00052898
-0.00052168
-0.00051410
-0.00050623
-0.00049807
-0.00048963
-0.00048094
-0.00047202
-0.00046290
-0.00045357
-0.00044406
-0.00043439
-0.00042462
-0.00041475
-0.00040478
-0.00039468
-0.00038446
-0.00037415
-0.00036376
-0.00035329
-0.00034276
-0.00033221
-0.00032164
-0.00031105
-0.00030045
-0.00028983
-0.00027920
-0.00026855
-0.00025789
-0.00024721
-0.00023648
-0.00022568
-0.00021481
-0.00020388
-0.00019292
-0.00018195
-0.00017096
-0.00015997
-0.00014898
-0.00013801
-0.00012707
-0.00011620
-0.00010541
-0.00009473
-0.00008417
-0.00007369
-0.00006328
-0.00005296
-0.00004273
-0.00003266
-0.00002276
-0.00001304
-0.00000349
0.00000591
0.00001515
0.00002422
0.00003309
0.00004175
0.00005018
0.00005840
0.00006641
0.00007422
0.00008179
0.00008910
0.00009615
0.00010293
0.00010945
0.00011575
0.00012185
0.00012779
0.00013357
0.00013920
0.00014468
0.00014999
0.00015510
0.00015998
0.00016458
0.00016891
0.00017297
0.00017676
0.00018031
0.00018367
0.00018692
0.00019011
0.00019330
0.00019649
0.00019970
0.00020290
0.00020609
0.00020928
0.00021248
0.00021572
0.00021901
0.00022238
0.00022579
0.00022923
0.00023266
0.00023607
0.00023946
0.00024280
0.00024609
0.00024929
0.00025241
0.00025542
0.00025832
0.00026110
0.00026377
0.00026636
0.00026887
0.00027133
0.00027375
0.00027620
0.00027873
0.00028134
0.00028403
0.00028677
0.00028952
0.00029225
0.00029492
0.00029749
0.00029992
0.00030219
0.00030427
0.00030618
0.00030790
0.00030942
0.00031073
0.00031181
0.00031267
0.00031330
0.00031370
0.00031385
0.00031376
0.00031343
0.00031288
0.00031215
0.00031126
0.00031026
0.00030917
0.00030799
0.00030673
0.00030537
0.00030392
0.00030240
0.00030081
0.00029919
0.00029757
0.00029603
0.00029464
0.00029344
0.00029243
0.00029160
0.00029093
0.00029041
0.00029001
0.00028971
0.00028948
0.00028930
0.00028917
0.00028906
0.00028896
0.00028889
0.00028884
0.00028884
0.00028887
0.00028889
0.00028892
0.00028894
0.00028897
0.00028902
0.00028913
0.00028931
0.00028957
0.00028989
0.00029025
0.00029068
0.00029117
0.00029171
0.00029229
0.00029289
0.00029351
0.00029416
0.00029484
0.00029556
0.00029630
0.00029705
0.00029780
0.00029854
0.00029930
0.00030008
0.00030090
0.00030177
0.00030267
0.00030359
0.00030449
0.00030536
0.00030620
0.00030702
0.00030785
0.00030872
0.00030963
0.00031060
0.00031168
0.00031286
0.00031414
0.00031552
0.00031698
0.00031853
0.00032019
0.00032194
0.00032378
0.00032569
0.00032764
0.00032962
0.00033164
0.00033367
0.00033572
0.00033780
0.00033990
0.00034201
0.00034412
0.00034618
0.00034817
0.00035005
0.00035182
0.00035350
0.00035512
0.00035671
0.00035827
0.00035981
0.00036133
0.00036282
0.00036427
0.00036567
0.00036702
0.00036829
0.00036946
0.00037050
0.00037143
0.00037226
0.00037300
0.00037365
0.00037424
0.00037478
0.00037530
0.00037576
0.00037614
0.00037637
0.00037638
0.00037610
0.00037550
0.00037455
0.00037323
0.00037155
0.00036954
0.00036724
0.00036469
0.00036191
0.00035891
0.00035567
0.00035223
0.00034858
0.00034476
0.00034077
0.00033661
0.00033227
0.00032775
0.00032305
0.00031817
0.00031312
0.00030795
0.00030270
0.00029738
0.00029199
0.00028651
0.00028094
0.00027528
0.00026952
0.00026365
0.00025769
0.00025166
0.00024562
0.00023959
0.00023363
0.00022776
0.00022201
0.00021637
0.00021084
0.00020545
0.00020020
0.00019510
0.00019015
0.00018534
0.00018068
0.00017619
0.00017190
0.00016782
0.00016394
0.00016027
0.00015683
0.00015361
0.00015061
0.00014782
0.00014526
0.00014294
0.00014085
0.00013897
0.00013731
0.00013585
0.00013457
0.00013344
0.00013243
0.00013154
0.00013077
0.00013010
0.00012954
0.00012906
0.00012865
0.00012830
0.00012801
0.00012777
0.00012754
0.00012728
0.00012698
0.00012661
0.00012616
0.00012561
0.00012497
0.00012421
0.00012333
0.00012228
0.00012105
0.00011965
0.00011806
0.00011632
0.00011444
0.00011241
0.00011018
0.00010769
0.00010491
0.00010183
0.00009844
0.00009473
0.00009075
0.00008648
0.00008194
0.00007712
0.00007199
0.00006654
0.00006077
0.00005467
0.00004823
0.00004140
0.00003418
0.00002658
0.00001861
0.00001027
0.00000158
-0.00000745
-0.00001678
-0.00002638
-0.00003625
-0.00004638
-0.00005678
-0.00006745
-0.00007843
-0.00008975
-0.00010145
-0.00011350
-0.00012588
-0.00013854
-0.00015144
-0.00016455
-0.00017782
-0.00019125
-0.00020481
-0.00021847
-0.00023218
-0.00024594
-0.00025973
-0.00027354
-0.00028735
-0.00030113
-0.00031486
-0.00032852
-0.00034206
-0.00035547
-0.00036873
-0.00038180
-0.00039466
-0.00040728
-0.00041964
-0.00043175
-0.00044360
-0.00045519
-0.00046651
-0.00047756
-0.00048833
-0.00049878
-0.00050886
-0.00051854
-0.00052781
-0.00053668
-0.00054514
-0.00055321
-0.00056085
-0.00056807
-0.00057482
-0.00058111
-0.00058690
-0.00059217
-0.00059688
-0.00060103
-0.00060461
-0.00060760
-0.00061000
-0.00061176
-0.00061290
-0.00061339
-0.00061322
-0.00061238
-0.00061085
-0.00060864
-0.00060575
-0.00060220
-0.00059797
-0.00059308
-0.00058749
-0.00058119
-0.00057414
-0.00056636
-0.00055784
-0.00054861
-0.00053867
-0.00052803
-0.00051666
-0.00050455
-0.00049165
-0.00047797
-0.00046349
-0.00044823
-0.00043224
-0.00041552
-0.00039812
-0.00038004
-0.00036130
-0.00034188
-0.00032182
-0.00030119
-0.00028007
-0.00025854
-0.00023663
-0.00021437
-0.00019176
-0.00016882
-0.00014554
-0.00012193
-0.00009799
-0.00007371
-0.00004908
-0.00002406
0.00000137
0.00002723
0.00005350
0.00008017
0.00010721
0.00013458
0.00016225
0.00019019
0.00021836
0.00024674
0.00027529
0.00030397
0.00033278
0.00036172
0.00039079
0.00042000
0.00044934
0.00047878
0.00050826
0.00053777
0.00056729
0.00059685
0.00062644
0.00065608
0.00068577
0.00071554
0.00074538
0.00077528
0.00080522
0.00083515
0.00086502
0.00089479
0.00092443
0.00095390
0.00098319
0.00101229
0.00104122
0.00106997
0.00109857
0.00112702
0.00115532
0.00118348
0.00121148
0.00123935
0.00126707
0.00129463
0.00132203
0.00134923
0.00137621
0.00140295
0.00142942
0.00145556
0.00148132
0.00150664
0.00153149
0.00155588
0.00157980
0.00160325
0.00162623
0.00164876
0.00167082
0.00169242
0.00171353
0.00173415
0.00175426
0.00177386
0.00179291
0.00181141
0.00182931
0.00184659
0.00186324
0.00187924
0.00189463
0.00190942
0.00192362
0.00193726
0.00195037
0.00196300
0.00197520
0.00198696
0.00199830
0.00200919
0.00201963
0.00202964
0.00203920
0.00204833
0.00205699
0.00206515
0.00207277
0.00207981
0.00208626
0.00209212
0.00209738
0.00210204
0.00210608
0.00210949
0.00211226
0.00211437
0.00211583
0.00211663
0.00211679
0.00211632
0.00211524
0.00211358
0.00211136
0.00210860
0.00210527
0.00210138
0.00209690
0.00209186
0.00208628
0.00208019
0.00207361
0.00206651
0.00205887
0.00205067
0.00204189
0.00203252
0.00202257
0.00201203
0.00200089
0.00198913
0.00197673
0.00196366
0.00194992
0.00193553
0.00192050
0.00190484
0.00188856
0.00187163
0.00185408
0.00183590
0.00181712
0.00179775
0.00177779
0.00175727
0.00173621
0.00171463
0.00169256
0.00167001
0.00164701
0.00162359
0.00159973
0.00157545
0.00155078
0.00152575
0.00150043
0.00147482
0.00144896
0.00142284
0.00139647
0.00136988
0.00134307
0.00131604
0.00128879
0.00126130
0.00123358
0.00120561
0.00117741
0.00114899
0.00112036
0.00109154
0.00106254
0.00103336
0.00100401
0.00097448
0.00094477
0.00091489
0.00088485
0.00085466
0.00082437
0.00079403
0.00076368
0.00073338
0.00070314
0.00067301
0.00064302
0.00061322
0.00058363
0.00055424
0.00052504
0.00049602
0.00046718
0.00043854
0.00041015
0.00038206
0.00035430
0.00032691
0.00029993
0.00027339
0.00024732
0.00022174
0.00019665
0.00017203
0.00014789
0.00012420
0.00010095
0.00007815
0.00005584
0.00003404
0.00001276
-0.00000800
-0.00002823
-0.00004795
-0.00006711
-0.00008571
-0.00010372
-0.00012116
-0.00013804
-0.00015437
-0.00017015
-0.00018538
-0.00020003
-0.00021412
-0.00022767
-0.00024070
-0.00025321
-0.00026519
-0.00027663
-0.00028753
-0.00029794
-0.00030786
-0.00031730
-0.00032625
-0.00033469
-0.00034263
-0.00035003
-0.00035688
-0.00036315
-0.00036880
-0.00037380
-0.00037815
-0.00038184
-0.00038486
-0.00038722
-0.00038892
-0.00038996
-0.00039036
-0.00039015
-0.00038937
-0.00038806
-0.00038624
-0.00038393
-0.00038114
-0.00037789
-0.00037416
-0.00036996
-0.00036528
-0.00036012
-0.00035448
-0.00034838
-0.00034183
-0.00033487
-0.00032749
-0.00031971
-0.00031155
-0.00030303
-0.00029418
-0.00028503
-0.00027561
-0.00026593
-0.00025599
-0.00024581
-0.00023539
-0.00022473
-0.00021383
-0.00020268
-0.00019126
-0.00017958
-0.00016762
-0.00015539
-0.00014287
-0.00013006
-0.00011697
-0.00010360
-0.00009000
-0.00007621
-0.00006222
-0.00004806
-0.00003373
-0.00001927
-0.00000467
0.00001004
0.00002487
0.00003978
0.00005478
0.00006986
0.00008501
0.00010020
0.00011543
0.00013068
0.00014593
0.00016114
0.00017630
0.00019136
0.00020631
0.00022113
0.00023579
0.00025027
0.00026458
0.00027870
0.00029259
0.00030624
0.00031961
0.00033269
0.00034544
0.00035787
0.00037001
0.00038187
0.00039345
0.00040475
0.00041578
0.00042654
0.00043704
0.00044724
0.00045715
0.00046674
0.00047596
0.00048480
0.00049325
0.00050131
0.00050902
0.00051639
0.00052343
0.00053015
0.00053653
0.00054259
0.00054830
0.00055364
0.00055857
0.00056304
0.00056703
0.00057055
0.00057357
0.00057611
0.00057814
0.00057965
0.00058063
0.00058106
0.00058092
0.00058023
0.00057897
0.00057715
0.00057478
0.00057186
0.00056841
0.00056444
0.00055997
0.00055503
0.00054961
0.00054369
0.00053720
0.00053009
0.00052231
0.00051382
0.00050462
0.00049469
0.00048405
0.00047271
0.00046072
0.00044808
0.00043485
0.00042105
0.00040668
0.00039175
0.00037626
0.00036022
0.00034365
0.00032655
0.00030892
0.00029074
0.00027203
0.00025278
0.00023302
0.00021275
0.00019198
0.00017069
0.00014892
0.00012663
0.00010382
0.00008046
0.00005654
0.00003205
0.00000700
-0.00001861
-0.00004475
-0.00007137
-0.00009844
-0.00012589
-0.00015369
-0.00018182
-0.00021030
-0.00023911
-0.00026825
-0.00029767
-0.00032736
-0.00035732
-0.00038751
-0.00041792
-0.00044852
-0.00047928
-0.00051015
-0.00054112
-0.00057213
-0.00060316
-0.00063417
-0.00066514
-0.00069600
-0.00072671
-0.00075723
-0.00078755
-0.00081768
-0.00084761
-0.00087734
-0.00090685
-0.00093613
-0.00096519
-0.00099399
-0.00102252
-0.00105075
-0.00107868
-0.00110629
-0.00113357
-0.00116051
-0.00118710
-0.00121332
-0.00123918
-0.00126464
-0.00128970
-0.00131436
-0.00133860
-0.00136241
-0.00138576
-0.00140865
-0.00143104
-0.00145294
-0.00147428
-0.00149505
-0.00151521
-0.00153477
-0.00155374
-0.00157213
-0.00158991
-0.00160708
-0.00162360
-0.00163946
-0.00165464
-0.00166914
-0.00168294
-0.00169604
-0.00170845
-0.00172017
-0.00173122
-0.00174160
-0.00175134
-0.00176049
-0.00176907
-0.00177710
-0.00178458
-0.00179152
-0.00179792
-0.00180381
-0.00180918
-0.00181404
-0.00181839
-0.00182224
-0.00182560
-0.00182846
-0.00183079
-0.00183257
-0.00183379
-0.00183444
-0.00183454
-0.00183411
-0.00183320
-0.00183182
-0.00182995
-0.00182755
-0.00182458
-0.00182103
-0.00181693
-0.00181230
-0.00180716
-0.00180151
-0.00179535
-0.00178871
-0.00178165
-0.00177421
-0.00176645
-0.00175839
-0.00175004
-0.00174141
-0.00173252
-0.00172339
-0.00171403
-0.00170442
-0.00169457
-0.00168446
-0.00167411
-0.00166355
-0.00165280
-0.00164191
-0.00163090
-0.00161979
-0.00160862
-0.00159737
-0.00158605
-0.00157463
-0.00156308
-0.00155137
-0.00153949
-0.00152739
-0.00151508
-0.00150255
-0.00148979
-0.00147683
-0.00146368
-0.00145040
-0.00143698
-0.00142342
-0.00140967
-0.00139572
-0.00138154
-0.00136713
-0.00135249
-0.00133762
-0.00132251
-0.00130718
-0.00129164
-0.00127589
-0.00125992
-0.00124374
-0.00122735
-0.00121077
-0.00119402
-0.00117713
-0.00116013
-0.00114306
-0.00112592
-0.00110872
-0.00109145
-0.00107413
-0.00105676
-0.00103939
-0.00102206
-0.00100479
-0.00098761
-0.00097054
-0.00095357
-0.00093669
-0.00091989
-0.00090315
-0.00088646
-0.00086980
-0.00085313
-0.00083641
-0.00081964
-0.00080278
-0.00078583
-0.00076877
-0.00075159
-0.00073426
-0.00071677
-0.00069912
-0.00068132
-0.00066339
-0.00064535
-0.00062722
-0.00060899
-0.00059069
-0.00057232
-0.00055390
-0.00053545
-0.00051696
-0.00049843
-0.00047981
-0.00046109
-0.00044225
-0.00042332
-0.00040430
-0.00038520
-0.00036606
-0.00034687
-0.00032765
-0.00030839
-0.00028906
-0.00026965
-0.00025018
-0.00023064
-0.00021102
-0.00019127
-0.00017137
-0.00015128
-0.00013098
-0.00011041
-0.00008954
-0.00006835
-0.00004686
-0.00002507
-0.00000300
0.00001933
0.00004190
0.00006471
0.00008775
0.00011100
0.00013441
0.00015795
0.00018159
0.00020529
0.00022903
0.00025277
0.00027646
0.00030006
0.00032349
0.00034671
0.00036971
0.00039245
0.00041495
0.00043718
0.00045913
0.00048074
0.00050200
0.00052289
0.00054341
0.00056358
0.00058342
0.00060296
0.00062218
0.00064109
0.00065964
0.00067783
0.00069562
0.00071300
0.00072995
0.00074648
0.00076259
0.00077827
0.00079351
0.00080831
0.00082265
0.00083653
0.00084994
0.00086286
0.00087529
0.00088724
0.00089872
0.00090974
0.00092033
0.00093048
0.00094020
0.00094951
0.00095838
0.00096683
0.00097487
0.00098253
0.00098978
0.00099661
0.00100301
0.00100899
0.00101456
0.00101972
0.00102444
0.00102871
0.00103253
0.00103593
0.00103890
0.00104144
0.00104356
0.00104525
0.00104649
0.00104728
0.00104762
0.00104755
0.00104706
0.00104614
0.00104477
0.00104294
0.00104065
0.00103789
0.00103467
0.00103096
0.00102676
0.00102211
0.00101703
0.00101151
0.00100555
0.00099912
0.00099222
0.00098485
0.00097699
0.00096865
0.00095984
0.00095059
0.00094093
0.00093085
0.00092034
0.00090938
0.00089795
0.00088601
0.00087353
0.00086052
0.00084697
0.00083294
0.00081846
0.00080353
0.00078818
0.00077241
0.00075625
0.00073971
0.00072281
0.00070556
0.00068797
0.00067001
0.00065168
0.00063294
0.00061376
0.00059411
0.00057397
0.00055331
0.00053214
0.00051044
0.00048821
0.00046544
0.00044214
0.00041833
0.00039400
0.00036915
0.00034378
0.00031789
0.00029151
0.00026467
0.00023743
0.00020983
0.00018193
0.00015379
0.00012542
0.00009687
0.00006816
0.00003932
0.00001041
-0.00001851
-0.00004741
-0.00007624
-0.00010501
-0.00013375
-0.00016248
-0.00019127
-0.00022014
-0.00024909
-0.00027814
-0.00030725
-0.00033640
-0.00036561
-0.00039487
-0.00042417
-0.00045348
-0.00048276
-0.00051197
-0.00054110
-0.00057015
-0.00059913
-0.00062803
-0.00065686
-0.00068562
-0.00071433
-0.00074298
-0.00077154
-0.00079996
-0.00082824
-0.00085636
-0.00088433
-0.00091213
-0.00093974
-0.00096713
-0.00099428
-0.00102116
-0.00104776
-0.00107407
-0.00110007
-0.00112572
-0.00115100
-0.00117588
-0.00120037
-0.00122446
-0.00124815
-0.00127146
-0.00129438
-0.00131695
-0.00133922
-0.00136123
-0.00138302
-0.00140460
-0.00142598
-0.00144714
-0.00146808
-0.00148880
-0.00150927
-0.00152949
-0.00154942
-0.00156904
-0.00158831
-0.00160722
-0.00162572
-0.00164381
-0.00166148
-0.00167872
-0.00169551
-0.00171182
-0.00172760
-0.00174279
-0.00175737
-0.00177131
-0.00178461
-0.00179729
-0.00180933
-0.00182072
-0.00183148
-0.00184162
-0.00185117
-0.00186014
-0.00186857
-0.00187648
-0.00188389
-0.00189083
-0.00189728
-0.00190323
-0.00190864
-0.00191351
-0.00191783
-0.00192159
-0.00192484
-0.00192763
-0.00193003
-0.00193210
-0.00193386
-0.00193531
-0.00193647
-0.00193733
-0.00193792
-0.00193823
-0.00193825
-0.00193798
-0.00193738
-0.00193645
-0.00193519
-0.00193359
-0.00193166
-0.00192938
-0.00192678
-0.00192386
-0.00192064
-0.00191713
-0.00191337
-0.00190939
-0.00190518
-0.00190077
-0.00189617
-0.00189139
-0.00188645
-0.00188138
-0.00187616
-0.00187081
-0.00186530
-0.00185964
-0.00185382
-0.00184786
-0.00184179
-0.00183563
-0.00182940
-0.00182312
-0.00181681
-0.00181046
-0.00180411
-0.00179776
-0.00179142
-0.00178511
-0.00177885
-0.00177265
-0.00176653
-0.00176048
-0.00175451
-0.00174861
-0.00174279
-0.00173704
-0.00173136
-0.00172573
-0.00172014
-0.00171463
-0.00170923
-0.00170395
-0.00169882
-0.00169387
-0.00168911
-0.00168459
-0.00168030
-0.00167628
-0.00167253
-0.00166907
-0.00166592
-0.00166306
-0.00166050
-0.00165822
-0.00165623
-0.00165452
-0.00165308
-0.00165189
-0.00165094
-0.00165020
-0.00164969
-0.00164942
-0.00164941
-0.00164966
-0.00165016
-0.00165089
-0.00165188
-0.00165313
-0.00165465
-0.00165645
-0.00165850
-0.00166082
-0.00166339
-0.00166623
-0.00166933
-0.00167270
-0.00167634
-0.00168026
-0.00168446
-0.00168895
-0.00169370
-0.00169869
-0.00170389
-0.00170927
-0.00171481
-0.00172049
-0.00172627
-0.00173216
-0.00173812
-0.00174410
-0.00175008
-0.00175601
-0.00176188
-0.00176770
-0.00177345
-0.00177917
-0.00178486
-0.00179055
-0.00179627
-0.00180201
-0.00180775
-0.00181349
-0.00181918
-0.00182484
-0.00183044
-0.00183597
-0.00184141
-0.00184673
-0.00185194
-0.00185705
-0.00186208
-0.00186704
-0.00187196
-0.00187683
-0.00188163
-0.00188636
-0.00189101
-0.00189554
-0.00189994
-0.00190417
-0.00190822
-0.00191211
-0.00191585
-0.00191946
-0.00192293
-0.00192627
-0.00192952
-0.00193269
-0.00193581
-0.00193886
-0.00194184
-0.00194471
-0.00194744
-0.00195003
-0.00195247
-0.00195475
-0.00195685
-0.00195877
-0.00196049
-0.00196204
-0.00196345
-0.00196475
-0.00196598
-0.00196717
-0.00196832
-0.00196939
-0.00197033
-0.00197109
-0.00197164
-0.00197198
-0.00197208
-0.00197195
-0.00197157
-0.00197092
-0.00197002
-0.00196886
-0.00196746
-0.00196585
-0.00196409
-0.00196219
-0.00196017
-0.00195804
-0.00195579
-0.00195341
-0.00195089
-0.00194824
-0.00194548
-0.00194260
-0.00193960
-0.00193646
-0.00193313
-0.00192957
-0.00192575
-0.00192164
-0.00191720
-0.00191240
-0.00190720
-0.00190158
-0.00189556
-0.00188914
-0.00188235
-0.00187517
-0.00186759
-0.00185960
-0.00185116
-0.00184229
-0.00183294
-0.00182310
-0.00181276
-0.00180191
-0.00179055
-0.00177870
-0.00176634
-0.00175346
-0.00174006
-0.00172614
-0.00171174
-0.00169692
-0.00168172
-0.00166618
-0.00165032
-0.00163415
-0.00161769
-0.00160095
-0.00158396
-0.00156679
-0.00154945
-0.00153198
-0.00151437
-0.00149664
-0.00147879
-0.00146085
-0.00144281
-0.00142470
-0.00140654
-0.00138834
-0.00137012
-0.00135189
-0.00133366
-0.00131543
-0.00129718
-0.00127893
-0.00126070
-0.00124249
-0.00122430
-0.00120613
-0.00118797
-0.00116982
-0.00115170
-0.00113360
-0.00111552
-0.00109747
-0.00107947
-0.00106153
-0.00104365
-0.00102585
-0.00100810
-0.00099041
-0.00097277
-0.00095519
-0.00093765
-0.00092017
-0.00090278
-0.00088551
-0.00086838
-0.00085137
-0.00083446
-0.00081762
-0.00080080
-0.00078399
-0.00076718
-0.00075036
-0.00073352
-0.00071662
-0.00069964
-0.00068255
-0.00066533
-0.00064795
-0.00063042
-0.00061274
-0.00059491
-0.00057692
-0.00055874
-0.00054036
-0.00052176
-0.00050295
-0.00048395
-0.00046477
-0.00044544
-0.00042600
-0.00040644
-0.00038676
-0.00036694
-0.00034698
-0.00032691
-0.00030678
-0.00028662
-0.00026641
-0.00024616
-0.00022586
-0.00020550
-0.00018506
-0.00016454
-0.00014391
-0.00012313
-0.00010219
-0.00008107
-0.00005978
-0.00003832
-0.00001667
0.00000522
0.00002738
0.00004988
0.00007273
0.00009596
0.00011959
0.00014362
0.00016805
0.00019286
0.00021807
0.00024368
0.00026968
0.00029605
0.00032276
0.00034981
0.00037718
0.00040485
0.00043280
0.00046106
0.00048963
0.00051852
0.00054773
0.00057730
0.00060723
0.00063753
0.00066821
0.00069925
0.00073061
0.00076227
0.00079420
0.00082638
0.00085882
0.00089151
0.00092447
0.00095772
0.00099126
0.00102507
0.00105912
0.00109340
0.00112793
0.00116272
0.00119780
0.00123318
0.00126886
0.00130482
0.00134107
0.00137759
0.00141440
0.00145150
0.00148891
0.00152665
0.00156476
0.00160327
0.00164219
0.00168150
0.00172120
0.00176124
0.00180162
0.00184231
0.00188330
0.00192458
0.00196614
0.00200794
0.00204999
0.00209226
0.00213475
0.00217744
0.00222035
0.00226345
0.00230677
0.00235030
0.00239404
0.00243797
0.00248205
0.00252627
0.00257060
0.00261504
0.00265957
0.00270420
0.00274893
0.00279375
0.00283863
0.00288355
0.00292852
0.00297354
0.00301859
0.00306365
0.00310869
0.00315370
0.00319867
0.00324356
0.00328835
0.00333300
0.00337747
0.00342174
0.00346576
0.00350953
0.00355305
0.00359630
0.00363927
0.00368193
0.00372426
0.00376623
0.00380783
0.00384903
0.00388982
0.00393020
0.00397018
0.00400976
0.00404894
0.00408771
0.00412605
0.00416394
0.00420135
0.00423824
0.00427457
0.00431033
0.00434553
0.00438020
0.00441437
0.00444806
0.00448127
0.00451397
0.00454614
0.00457774
0.00460875
0.00463913
0.00466886
0.00469790
0.00472622
0.00475384
0.00478075
0.00480698
0.00483251
0.00485739
0.00488162
0.00490526
0.00492834
0.00495090
0.00497295
0.00499449
0.00501552
0.00503604
0.00505604
0.00507551
0.00509444
0.00511277
0.00513047
0.00514752
0.00516389
0.00517962
0.00519475
0.00520926
0.00522312
0.00523631
0.00524879
0.00526057
0.00527167
0.00528211
0.00529187
0.00530094
0.00530929
0.00531688
0.00532369
0.00532972
0.00533495
0.00533939
0.00534305
0.00534595
0.00534810
0.00534951
0.00535016
0.00535006
0.00534920
0.00534758
0.00534520
0.00534208
0.00533823
0.00533366
0.00532838
0.00532240
0.00531570
0.00530827
0.00530012
0.00529125
0.00528168
0.00527140
0.00526044
0.00524881
0.00523655
0.00522367
0.00521021
0.00519616
0.00518153
0.00516631
0.00515051
0.00513417
0.00511728
0.00509988
0.00508197
0.00506357
0.00504468
0.00502531
0.00500542
0.00498498
0.00496394
0.00494225
0.00491989
0.00489689
0.00487328
0.00484908
0.00482431
0.00479898
0.00477309
0.00474668
0.00471982
0.00469255
0.00466494
0.00463703
0.00460886
0.00458044
0.00455181
0.00452296
0.00449390
0.00446462
0.00443512
0.00440537
0.00437533
0.00434497
0.00431427
0.00428322
0.00425186
0.00422019
0.00418823
0.00415599
0.00412349
0.00409076
0.00405777
0.00402452
0.00399102
0.00395726
0.00392329
0.00388910
0.00385469
0.00382005
0.00378517
0.00375005
0.00371470
0.00367909
0.00364320
0.00360700
0.00357046
0.00353359
0.00349635
0.00345875
0.00342076
0.00338239
0.00334364
0.00330454
0.00326511
0.00322540
0.00318543
0.00314523
0.00310483
0.00306421
0.00302339
0.00298239
0.00294123
0.00289992
0.00285846
0.00281686
0.00277512
0.00273326
0.00269126
0.00264912
0.00260682
0.00256433
0.00252167
0.00247885
0.00243587
0.00239275
0.00234950
0.00230610
0.00226251
0.00221871
0.00217473
0.00213058
0.00208628
0.00204181
0.00199718
0.00195238
0.00190741
0.00186226
0.00181690
0.00177130
0.00172546
0.00167938
0.00163310
0.00158661
0.00153993
0.00149309
0.00144609
0.00139895
0.00135165
0.00130421
0.00125658
0.00120877
0.00116080
0.00111269
0.00106449
0.00101620
0.00096785
0.00091942
0.00087094
0.00082241
0.00077384
0.00072526
0.00067665
0.00062803
0.00057941
0.00053081
0.00048224
0.00043367
0.00038513
0.00033661
0.00028814
0.00023975
0.00019148
0.00014339
0.00009550
0.00004782
0.00000035
-0.00004692
-0.00009404
-0.00014102
-0.00018791
-0.00023472
-0.00028152
-0.00032832
-0.00037516
-0.00042205
-0.00046901
-0.00051597
-0.00056292
-0.00060982
-0.00065665
-0.00070343
-0.00075018
-0.00079691
-0.00084360
-0.00089024
-0.00093677
-0.00098320
-0.00102950
-0.00107569
-0.00112175
-0.00116769
-0.00121349
-0.00125914
-0.00130463
-0.00134995
-0.00139509
-0.00144004
-0.00148479
-0.00152932
-0.00157358
-0.00161755
-0.00166120
-0.00170452
-0.00174750
-0.00179012
-0.00183237
-0.00187420
-0.00191559
-0.00195653
-0.00199703
-0.00203712
-0.00207681
-0.00211610
-0.00215500
-0.00219352
-0.00223168
-0.00226954
-0.00230714
-0.00234451
-0.00238168
-0.00241864
-0.00245539
-0.00249189
-0.00252813
-0.00256405
-0.00259962
-0.00263484
-0.00266968
-0.00270415
-0.00273824
-0.00277197
-0.00280533
-0.00283833
-0.00287094
-0.00290315
-0.00293492
-0.00296621
-0.00299699
-0.00302723
-0.00305688
-0.00308592
-0.00311430
-0.00314202
-0.00316904
-0.00319538
-0.00322101
-0.00324592
-0.00327012
-0.00329364
-0.00331652
-0.00333877
-0.00336041
-0.00338145
-0.00340188
-0.00342171
-0.00344092
-0.00345954
-0.00347757
-0.00349503
-0.00351192
-0.00352823
-0.00354396
-0.00355910
-0.00357367
-0.00358765
-0.00360104
-0.00361383
-0.00362603
-0.00363765
-0.00364870
-0.00365917
-0.00366905
-0.00367832
-0.00368696
-0.00369496
-0.00370230
-0.00370898
-0.00371503
-0.00372046
-0.00372531
-0.00372961
-0.00373336
-0.00373656
-0.00373918
-0.00374118
-0.00374249
-0.00374303
-0.00374276
-0.00374165
-0.00373968
-0.00373689
-0.00373330
-0.00372892
-0.00372374
-0.00371776
-0.00371098
-0.00370343
-0.00369512
-0.00368608
-0.00367633
-0.00366590
-0.00365476
-0.00364291
-0.00363032
-0.00361699
-0.00360291
-0.00358806
-0.00357245
-0.00355606
-0.00353892
-0.00352103
-0.00350241
-0.00348310
-0.00346310
-0.00344242
-0.00342102
-0.00339888
-0.00337595
-0.00335226
-0.00332786
-0.00330280
-0.00327710
-0.00325080
-0.00322390
-0.00319641
-0.00316836
-0.00313978
-0.00311070
-0.00308116
-0.00305119
-0.00302081
-0.00299005
-0.00295892
-0.00292744
-0.00289560
-0.00286342
-0.00283088
-0.00279802
-0.00276484
-0.00273134
-0.00269750
-0.00266333
-0.00262881
-0.00259394
-0.00255873
-0.00252319
-0.00248734
-0.00245120
-0.00241478
-0.00237812
-0.00234122
-0.00230407
-0.00226669
-0.00222904
-0.00219110
-0.00215282
-0.00211419
-0.00207517
-0.00203574
-0.00199587
-0.00195554
-0.00191478
-0.00187360
-0.00183207
-0.00179021
-0.00174806
-0.00170564
-0.00166301
-0.00162019
-0.00157725
-0.00153418
-0.00149099
-0.00144765
-0.00140415
-0.00136048
-0.00131666
-0.00127268
-0.00122858
-0.00118438
-0.00114014
-0.00109591
-0.00105172
-0.00100760
-0.00096356
-0.00091964
-0.00087589
-0.00083235
-0.00078902
-0.00074590
-0.00070298
-0.00066028
-0.00061781
-0.00057556
-0.00053353
-0.00049171
-0.00045012
-0.00040875
-0.00036761
-0.00032670
-0.00028604
-0.00024565
-0.00020557
-0.00016583
-0.00012650
-0.00008762
-0.00004922
-0.00001131
0.00002609
0.00006295
0.00009922
0.00013491
0.00016997
0.00020441
0.00023820
0.00027131
0.00030372
0.00033537
0.00036625
0.00039632
0.00042559
0.00045405
0.00048169
0.00050853
0.00053456
0.00055979
0.00058422
0.00060787
0.00063074
0.00065287
0.00067429
0.00069504
0.00071515
0.00073465
0.00075353
0.00077179
0.00078942
0.00080641
0.00082277
0.00083849
0.00085360
0.00086811
0.00088207
0.00089550
0.00090843
0.00092086
0.00093278
0.00094421
0.00095513
0.00096557
0.00097555
0.00098509
0.00099418
0.00100283
0.00101104
0.00101882
0.00102617
0.00103309
0.00103961
0.00104575
0.00105151
0.00105688
0.00106186
0.00106645
0.00107069
0.00107461
0.00107823
0.00108158
0.00108469
0.00108757
0.00109021
0.00109262
0.00109481
0.00109679
0.00109861
0.00110029
0.00110183
0.00110320
0.00110439
0.00110539
0.00110617
0.00110670
0.00110696
0.00110692
0.00110659
0.00110600
0.00110518
0.00110419
0.00110305
0.00110181
0.00110047
0.00109906
0.00109759
0.00109607
0.00109451
0.00109292
0.00109129
0.00108964
0.00108796
0.00108627
0.00108455
0.00108283
0.00108114
0.00107950
0.00107793
0.00107643
0.00107498
0.00107356
0.00107215
0.00107075
0.00106936
0.00106797
0.00106658
0.00106517
0.00106374
0.00106226
0.00106071
0.00105910
0.00105739
0.00105553
0.00105343
0.00105105
0.00104841
0.00104552
0.00104238
0.00103899
0.00103534
0.00103144
0.00102727
0.00102283
0.00101815
0.00101326
0.00100819
0.00100295
0.00099755
0.00099199
0.00098624
0.00098028
0.00097414
0.00096783
0.00096139
0.00095486
0.00094831
0.00094178
0.00093534
0.00092897
0.00092269
0.00091649
0.00091039
0.00090440
0.00089854
0.00089282
0.00088727
0.00088193
0.00087679
0.00087181
0.00086694
0.00086212
0.00085734
0.00085259
0.00084790
0.00084328
0.00083878
0.00083444
0.00083031
0.00082641
0.00082275
0.00081935
0.00081620
0.00081331
0.00081067
0.00080826
0.00080608
0.00080415
0.00080248
0.00080107
0.00079988
0.00079889
0.00079808
0.00079745
0.00079699
0.00079668
0.00079651
0.00079645
0.00079652
0.00079670
0.00079703
0.00079749
0.00079812
0.00079891
0.00079984
0.00080087
0.00080198
0.00080314
0.00080434
0.00080559
0.00080686
0.00080818
0.00080957
0.00081104
0.00081261
0.00081431
0.00081612
0.00081805
0.00082008
0.00082221
0.00082441
0.00082664
0.00082884
0.00083095
0.00083296
0.00083488
0.00083670
0.00083842
0.00084004
0.00084156
0.00084298
0.00084432
0.00084557
0.00084673
0.00084777
0.00084867
0.00084941
0.00084997
0.00085036
0.00085060
0.00085070
0.00085069
0.00085058
0.00085037
0.00085005
0.00084961
0.00084905
0.00084836
0.00084756
0.00084661
0.00084550
0.00084423
0.00084280
0.00084121
0.00083949
0.00083762
0.00083560
0.00083342
0.00083109
0.00082860
0.00082596
0.00082315
0.00082014
0.00081690
0.00081341
0.00080971
0.00080585
0.00080189
0.00079786
0.00079374
0.00078952
0.00078519
0.00078074
0.00077617
0.00077149
0.00076671
0.00076181
0.00075676
0.00075151
0.00074602
0.00074026
0.00073422
0.00072787
0.00072124
0.00071433
0.00070714
0.00069968
0.00069193
0.00068390
0.00067558
0.00066696
0.00065803
0.00064878
0.00063921
0.00062931
0.00061909
0.00060859
0.00059781
0.00058675
0.00057537
0.00056365
0.00055160
0.00053922
0.00052655
0.00051362
0.00050040
0.00048688
0.00047300
0.00045877
0.00044418
0.00042923
0.00041391
0.00039823
0.00038220
0.00036584
0.00034916
0.00033215
0.00031484
0.00029721
0.00027926
0.00026100
0.00024247
0.00022370
0.00020474
0.00018562
0.00016639
0.00014706
0.00012760
0.00010800
0.00008827
0.00006840
0.00004842
0.00002838
0.00000832
-0.00001174
-0.00003176
-0.00005175
-0.00007167
-0.00009153
-0.00011131
-0.00013102
-0.00015069
-0.00017032
-0.00018990
-0.00020942
-0.00022887
-0.00024825
-0.00026758
-0.00028686
-0.00030609
-0.00032526
-0.00034440
-0.00036351
-0.00038259
-0.00040163
-0.00042062
-0.00043955
-0.00045838
-0.00047710
-0.00049568
-0.00051413
-0.00053248
-0.00055075
-0.00056898
-0.00058720
-0.00060542
-0.00062360
-0.00064172
-0.00065974
-0.00067765
-0.00069547
-0.00071322
-0.00073093
-0.00074859
-0.00076622
-0.00078383
-0.00080144
-0.00081905
-0.00083670
-0.00085441
-0.00087218
-0.00089003
-0.00090796
-0.00092595
-0.00094399
-0.00096205
-0.00098009
-0.00099808
-0.00101599
-0.00103380
-0.00105151
-0.00106912
-0.00108660
-0.00110395
-0.00112116
-0.00113824
-0.00115521
-0.00117212
-0.00118900
-0.00120589
-0.00122281
-0.00123975
-0.00125670
-0.00127365
-0.00129057
-0.00130747
-0.00132433
-0.00134112
-0.00135781
-0.00137436
-0.00139077
-0.00140702
-0.00142311
-0.00143906
-0.00145487
-0.00147052
-0.00148600
-0.00150128
-0.00151634
-0.00153119
-0.00154583
-0.00156030
-0.00157458
-0.00158868
-0.00160259
-0.00161634
-0.00162996
-0.00164345
-0.00165683
-0.00167005
-0.00168308
-0.00169590
-0.00170852
-0.00172100
-0.00173339
-0.00174575
-0.00175809
-0.00177040
-0.00178267
-0.00179488
-0.00180704
-0.00181915
-0.00183122
-0.00184327
-0.00185530
-0.00186729
-0.00187924
-0.00189115
-0.00190304
-0.00191487
-0.00192663
-0.00193833
-0.00194996
-0.00196152
-0.00197302
-0.00198445
-0.00199580
-0.00200705
-0.00201817
-0.00202916
-0.00204001
-0.00205072
-0.00206128
-0.00207166
-0.00208186
-0.00209185
-0.00210165
-0.00211128
-0.00212078
-0.00213017
-0.00213945
-0.00214863
-0.00215771
-0.00216669
-0.00217558
-0.00218442
-0.00219321
-0.00220196
-0.00221070
-0.00221943
-0.00222818
-0.00223695
-0.00224576
-0.00225461
-0.00226352
-0.00227250
-0.00228153
-0.00229056
-0.00229954
-0.00230839
-0.00231710
-0.00232566
-0.00233408
-0.00234233
-0.00235039
-0.00235821
-0.00236577
-0.00237307
-0.00238006
-0.00238671
-0.00239297
-0.00239880
-0.00240417
-0.00240910
-0.00241359
-0.00241765
-0.00242129
-0.00242452
-0.00242734
-0.00242974
-0.00243175
-0.00243338
-0.00243464
-0.00243554
-0.00243609
-0.00243629
-0.00243615
-0.00243568
-0.00243486
-0.00243370
-0.00243216
-0.00243020
-0.00242777
-0.00242487
-0.00242147
-0.00241758
-0.00241321
-0.00240834
-0.00240296
-0.00239703
-0.00239054
-0.00238352
-0.00237598
-0.00236796
-0.00235951
-0.00235065
-0.00234143
-0.00233188
-0.00232200
-0.00231179
-0.00230125
-0.00229038
-0.00227921
-0.00226777
-0.00225608
-0.00224418
-0.00223207
-0.00221977
-0.00220729
-0.00219464
-0.00218184
-0.00216885
-0.00215565
-0.00214220
-0.00212850
-0.00211453
-0.00210030
-0.00208582
-0.00207114
-0.00205629
-0.00204128
-0.00202612
-0.00201082
-0.00199537
-0.00197982
-0.00196419
-0.00194847
-0.00193263
-0.00191665
-0.00190056
-0.00188435
-0.00186803
-0.00185158
-0.00183500
-0.00181826
-0.00180135
-0.00178425
-0.00176696
-0.00174949
-0.00173186
-0.00171408
-0.00169618
-0.00167817
-0.00166006
-0.00164181
-0.00162338
-0.00160471
-0.00158577
-0.00156654
-0.00154702
-0.00152720
-0.00150706
-0.00148663
-0.00146592
-0.00144494
-0.00142368
-0.00140214
-0.00138031
-0.00135825
-0.00133599
-0.00131357
-0.00129104
-0.00126844
-0.00124579
-0.00122309
-0.00120033
-0.00117749
-0.00115459
-0.00113164
-0.00110867
-0.00108569
-0.00106269
-0.00103965
-0.00101652
-0.00099330
-0.00096998
-0.00094654
-0.00092300
-0.00089938
-0.00087566
-0.00085188
-0.00082801
-0.00080407
-0.00078005
-0.00075594
-0.00073168
-0.00070728
-0.00068274
-0.00065810
-0.00063340
-0.00060867
-0.00058392
-0.00055912
-0.00053429
-0.00050944
-0.00048459
-0.00045975
-0.00043496
-0.00041022
-0.00038556
-0.00036099
-0.00033657
-0.00031232
-0.00028826
-0.00026439
-0.00024072
-0.00021725
-0.00019396
-0.00017085
-0.00014791
-0.00012514
-0.00010254
-0.00008011
-0.00005781
-0.00003560
-0.00001343
0.00000873
0.00003092
0.00005315
0.00007544
0.00009783
0.00012030
0.00014284
0.00016545
0.00018810
0.00021075
0.00023339
0.00025596
0.00027847
0.00030089
0.00032323
0.00034552
0.00036776
0.00038999
0.00041221
0.00043446
0.00045674
0.00047908
0.00050147
0.00052393
0.00054648
0.00056916
0.00059197
0.00061494
0.00063809
0.00066143
0.00068500
0.00070879
0.00073283
0.00075709
0.00078155
0.00080616
0.00083092
0.00085583
0.00088089
0.00090612
0.00093149
0.00095701
0.00098265
0.00100842
0.00103430
0.00106030
0.00108643
0.00111273
0.00113921
0.00116589
0.00119276
0.00121980
0.00124700
0.00127438
0.00130193
0.00132969
0.00135763
0.00138575
0.00141405
0.00144254
0.00147120
0.00149999
0.00152890
0.00155789
0.00158696
0.00161608
0.00164523
0.00167437
0.00170349
0.00173260
0.00176168
0.00179073
0.00181974
0.00184873
0.00187773
0.00190677
0.00193587
0.00196505
0.00199434
0.00202376
0.00205329
0.00208291
0.00211258
0.00214227
0.00217198
0.00220174
0.00223157
0.00226150
0.00229151
0.00232156
0.00235159
0.00238157
0.00241146
0.00244124
0.00247091
0.00250046
0.00252991
0.00255926
0.00258849
0.00261761
0.00264660
0.00267542
0.00270403
0.00273239
0.00276047
0.00278824
0.00281573
0.00284296
0.00286996
0.00289676
0.00292339
0.00294985
0.00297612
0.00300219
0.00302804
0.00305368
0.00307912
0.00310434
0.00312933
0.00315410
0.00317865
0.00320295
0.00322696
0.00325062
0.00327388
0.00329667
0.00331897
0.00334076
0.00336204
0.00338281
0.00340308
0.00342290
0.00344230
0.00346132
0.00347994
0.00349813
0.00351589
0.00353320
0.00355007
0.00356650
0.00358248
0.00359798
0.00361296
0.00362737
0.00364121
0.00365448
0.00366718
0.00367929
0.00369079
0.00370167
0.00371195
0.00372160
0.00373063
0.00373903
0.00374678
0.00375388
0.00376033
0.00376612
0.00377124
0.00377568
0.00377945
0.00378254
0.00378498
0.00378677
0.00378789
0.00378830
0.00378796
0.00378687
0.00378505
0.00378253
0.00377930
0.00377533
0.00377060
0.00376509
0.00375880
0.00375175
0.00374395
0.00373542
0.00372615
0.00371612
0.00370528
0.00369364
0.00368118
0.00366794
0.00365393
0.00363916
0.00362363
0.00360734
0.00359032
0.00357261
0.00355422
0.00353518
0.00351548
0.00349512
0.00347411
0.00345240
0.00342997
0.00340681
0.00338293
0.00335837
0.00333315
0.00330731
0.00328086
0.00325381
0.00322618
0.00319800
0.00316928
0.00314003
0.00311027
0.00308003
0.00304933
0.00301817
0.00298653
0.00295443
0.00292189
0.00288892
0.00285556
0.00282181
0.00278770
0.00275327
0.00271853
0.00268349
0.00264816
0.00261255
0.00257666
0.00254051
0.00250410
0.00246742
0.00243049
0.00239333
0.00235597
0.00231846
0.00228081
0.00224307
0.00220522
0.00216727
0.00212918
0.00209094
0.00205252
0.00201393
0.00197519
0.00193631
0.00189731
0.00185819
0.00181894
0.00177958
0.00174009
0.00170047
0.00166080
0.00162110
0.00158144
0.00154184
0.00150233
0.00146291
0.00142359
0.00138438
0.00134533
0.00130650
0.00126792
0.00122962
0.00119160
0.00115385
0.00111638
0.00107913
0.00104208
0.00100516
0.00096836
0.00093165
0.00089501
0.00085844
0.00082194
0.00078550
0.00074913
0.00071285
0.00067665
0.00064052
0.00060444
0.00056838
0.00053231
0.00049619
0.00045999
0.00042367
0.00038724
0.00035069
0.00031404
0.00027731
0.00024051
0.00020369
0.00016683
0.00012995
0.00009305
0.00005613
0.00001922
-0.00001766
-0.00005452
-0.00009134
-0.00012814
-0.00016492
-0.00020164
-0.00023830
-0.00027490
-0.00031143
-0.00034791
-0.00038430
-0.00042059
-0.00045677
-0.00049283
-0.00052878
-0.00056461
-0.00060034
-0.00063597
-0.00067149
-0.00070688
-0.00074208
-0.00077706
-0.00081182
-0.00084637
-0.00088071
-0.00091486
-0.00094880
-0.00098254
-0.00101606
-0.00104933
-0.00108232
-0.00111502
-0.00114741
-0.00117950
-0.00121125
-0.00124264
-0.00127363
-0.00130421
-0.00133437
-0.00136408
-0.00139333
-0.00142211
-0.00145040
-0.00147817
-0.00150537
-0.00153198
-0.00155798
-0.00158335
-0.00160802
-0.00163197
-0.00165515
-0.00167754
-0.00169915
-0.00171999
-0.00174009
-0.00175946
-0.00177810
-0.00179603
-0.00181323
-0.00182972
-0.00184548
-0.00186054
-0.00187490
-0.00188857
-0.00190156
-0.00191382
-0.00192534
-0.00193608
-0.00194607
-0.00195529
-0.00196376
-0.00197149
-0.00197853
-0.00198492
-0.00199069
-0.00199585
-0.00200039
-0.00200431
-0.00200759
-0.00201022
-0.00201221
-0.00201354
-0.00201425
-0.00201433
-0.00201382
-0.00201271
-0.00201101
-0.00200873
-0.00200586
-0.00200241
-0.00199839
-0.00199379
-0.00198859
-0.00198277
-0.00197635
-0.00196933
-0.00196168
-0.00195342
-0.00194454
-0.00193502
-0.00192486
-0.00191407
-0.00190263
-0.00189057
-0.00187788
-0.00186458
-0.00185066
-0.00183615
-0.00182107
-0.00180548
-0.00178939
-0.00177285
-0.00175588
-0.00173849
-0.00172072
-0.00170261
-0.00168421
-0.00166556
-0.00164667
-0.00162752
-0.00160809
-0.00158839
-0.00156843
-0.00154824
-0.00152783
-0.00150723
-0.00148646
-0.00146557
-0.00144459
-0.00142352
-0.00140238
-0.00138118
-0.00135993
-0.00133865
-0.00131735
-0.00129606
-0.00127476
-0.00125348
-0.00123222
-0.00121102
-0.00118990
-0.00116889
-0.00114799
-0.00112717
-0.00110644
-0.00108576
-0.00106513
-0.00104455
-0.00102403
-0.00100359
-0.00098326
-0.00096302
-0.00094286
-0.00092278
-0.00090278
-0.00088286
-0.00086299
-0.00084318
-0.00082341
-0.00080368
-0.00078403
-0.00076448
-0.00074504
-0.00072567
-0.00070637
-0.00068710
-0.00066786
-0.00064862
-0.00062936
-0.00061005
-0.00059070
-0.00057132
-0.00055192
-0.00053252
-0.00051313
-0.00049377
-0.00047443
-0.00045506
-0.00043565
-0.00041617
-0.00039662
-0.00037702
-0.00035741
-0.00033781
-0.00031828
-0.00029886
-0.00027959
-0.00026051
-0.00024164
-0.00022297
-0.00020451
-0.00018627
-0.00016825
-0.00015046
-0.00013291
-0.00011563
-0.00009862
-0.00008191
-0.00006551
-0.00004943
-0.00003364
-0.00001813
-0.00000288
0.00001211
0.00002681
0.00004125
0.00005543
0.00006938
0.00008310
0.00009661
0.00010993
0.00012306
0.00013595
0.00014861
0.00016102
0.00017315
0.00018500
0.00019660
0.00020796
0.00021914
0.00023019
0.00024114
0.00025200
0.00026275
0.00027340
0.00028389
0.00029420
0.00030429
0.00031414
0.00032373
0.00033304
0.00034206
0.00035078
0.00035917
0.00036723
0.00037497
0.00038239
0.00038949
0.00039627
0.00040271
0.00040880
0.00041456
0.00041998
0.00042503
0.00042968
0.00043391
0.00043769
0.00044103
0.00044394
0.00044643
0.00044849
0.00045015
0.00045142
0.00045235
0.00045294
0.00045323
0.00045321
0.00045289
0.00045226
0.00045132
0.00045006
0.00044851
0.00044664
0.00044447
0.00044201
0.00043928
0.00043630
0.00043308
0.00042963
0.00042594
0.00042201
0.00041783
0.00041337
0.00040859
0.00040351
0.00039813
0.00039251
0.00038666
0.00038060
0.00037435
0.00036792
0.00036131
0.00035454
0.00034761
0.00034050
0.00033320
0.00032567
0.00031790
0.00030990
0.00030169
0.00029326
0.00028463
0.00027581
0.00026682
0.00025764
0.00024831
0.00023883
0.00022926
0.00021959
0.00020983
0.00019997
0.00019001
0.00017994
0.00016979
0.00015952
0.00014914
0.00013863
0.00012798
0.00011719
0.00010625
0.00009515
0.00008391
0.00007255
0.00006109
0.00004952
0.00003785
0.00002606
0.00001415
0.00000212
-0.00001007
-0.00002245
-0.00003508
-0.00004801
-0.00006124
-0.00007475
-0.00008854
-0.00010258
-0.00011686
-0.00013139
-0.00014621
-0.00016131
-0.00017672
-0.00019242
-0.00020842
-0.00022472
-0.00024130
-0.00025815
-0.00027523
-0.00029249
-0.00030990
-0.00032744
-0.00034512
-0.00036292
-0.00038086
-0.00039891
-0.00041708
-0.00043536
-0.00045371
-0.00047212
-0.00049053
-0.00050896
-0.00052740
-0.00054583
-0.00056422
-0.00058255
-0.00060078
-0.00061889
-0.00063684
-0.00065461
-0.00067220
-0.00068960
-0.00070680
-0.00072381
-0.00074065
-0.00075733
-0.00077386
-0.00079022
-0.00080637
-0.00082229
-0.00083797
-0.00085339
-0.00086857
-0.00088352
-0.00089823
-0.00091270
-0.00092691
-0.00094084
-0.00095448
-0.00096783
-0.00098088
-0.00099365
-0.00100612
-0.00101830
-0.00103021
-0.00104184
-0.00105316
-0.00106417
-0.00107488
-0.00108534
-0.00109558
-0.00110563
-0.00111550
-0.00112516
-0.00113461
-0.00114384
-0.00115287
-0.00116173
-0.00117047
-0.00117914
-0.00118777
-0.00119635
-0.00120488
-0.00121332
-0.00122165
-0.00122988
-0.00123798
-0.00124597
-0.00125383
-0.00126157
-0.00126917
-0.00127658
-0.00128380
-0.00129082
-0.00129763
-0.00130423
-0.00131064
-0.00131687
-0.00132292
-0.00132879
-0.00133448
-0.00134000
-0.00134531
-0.00135039
-0.00135523
-0.00135983
-0.00136422
-0.00136840
-0.00137241
-0.00137625
-0.00137995
-0.00138352
-0.00138692
-0.00139017
-0.00139323
-0.00139612
-0.00139882
-0.00140133
-0.00140365
-0.00140578
-0.00140773
-0.00140948
-0.00141097
-0.00141218
-0.00141310
-0.00141373
-0.00141410
-0.00141424
-0.00141416
-0.00141386
-0.00141333
-0.00141257
-0.00141158
-0.00141037
-0.00140892
-0.00140723
-0.00140532
-0.00140320
-0.00140089
-0.00139838
-0.00139567
-0.00139275
-0.00138962
-0.00138628
-0.00138274
-0.00137900
-0.00137506
-0.00137091
-0.00136657
-0.00136201
-0.00135723
-0.00135222
-0.00134695
-0.00134144
-0.00133566
-0.00132960
-0.00132323
-0.00131656
-0.00130960
-0.00130233
-0.00129477
-0.00128694
-0.00127886
-0.00127058
-0.00126215
-0.00125358
-0.00124485
-0.00123594
-0.00122680
-0.00121743
-0.00120785
-0.00119808
-0.00118815
-0.00117805
-0.00116781
-0.00115742
-0.00114690
-0.00113626
-0.00112551
-0.00111469
-0.00110377
-0.00109275
-0.00108162
-0.00107035
-0.00105894
-0.00104738
-0.00103565
-0.00102375
-0.00101167
-0.00099944
-0.00098705
-0.00097454
-0.00096194
-0.00094925
-0.00093648
-0.00092366
-0.00091080
-0.00089794
-0.00088509
-0.00087224
-0.00085940
-0.00084655
-0.00083368
-0.00082080
-0.00080790
-0.00079498
-0.00078206
-0.00076918
-0.00075635
-0.00074359
-0.00073092
-0.00071834
-0.00070586
-0.00069346
-0.00068114
-0.00066891
-0.00065679
-0.00064480
-0.00063293
-0.00062118
-0.00060954
-0.00059799
-0.00058653
-0.00057517
-0.00056391
-0.00055277
-0.00054177
-0.00053089
-0.00052012
-0.00050946
-0.00049891
-0.00048846
-0.00047813
-0.00046791
-0.00045779
-0.00044777
-0.00043787
-0.00042812
-0.00041853
-0.00040913
-0.00039993
-0.00039093
-0.00038215
-0.00037362
-0.00036533
-0.00035731
-0.00034957
-0.00034211
-0.00033493
-0.00032800
-0.00032128
-0.00031470
-0.00030819
-0.00030171
-0.00029525
-0.00028879
-0.00028236
-0.00027595
-0.00026958
-0.00026325
-0.00025698
-0.00025077
-0.00024464
-0.00023859
-0.00023264
-0.00022680
-0.00022108
-0.00021550
-0.00021008
-0.00020484
-0.00019980
-0.00019500
-0.00019047
-0.00018620
-0.00018216
-0.00017830
-0.00017460
-0.00017107
-0.00016771
-0.00016451
-0.00016147
-0.00015858
-0.00015583
-0.00015319
-0.00015066
-0.00014823
-0.00014592
-0.00014369
-0.00014155
-0.00013949
-0.00013751
-0.00013558
-0.00013367
-0.00013175
-0.00012983
-0.00012791
-0.00012602
-0.00012415
-0.00012230
-0.00012048
-0.00011870
-0.00011696
-0.00011527
-0.00011360
-0.00011196
-0.00011037
-0.00010883
-0.00010735
-0.00010594
-0.00010459
-0.00010333
-0.00010220
-0.00010122
-0.00010040
-0.00009974
-0.00009925
-0.00009891
-0.00009872
-0.00009867
-0.00009874
-0.00009894
-0.00009924
-0.00009963
-0.00010010
-0.00010064
-0.00010123
-0.00010186
-0.00010250
-0.00010316
-0.00010381
-0.00010445
-0.00010506
-0.00010564
-0.00010619
-0.00010671
-0.00010722
-0.00010771
-0.00010819
-0.00010867
-0.00010915
-0.00010963
-0.00011015
-0.00011071
-0.00011133
-0.00011200
-0.00011271
-0.00011345
-0.00011422
-0.00011499
-0.00011576
-0.00011653
-0.00011732
-0.00011810
-0.00011886
-0.00011956
-0.00012021
-0.00012080
-0.00012133
-0.00012179
-0.00012214
-0.00012235
-0.00012239
-0.00012223
-0.00012184
-0.00012122
-0.00012036
-0.00011926
-0.00011792
-0.00011631
-0.00011445
-0.00011233
-0.00010994
-0.00010727
-0.00010433
-0.00010112
-0.00009764
-0.00009390
-0.00008992
-0.00008571
-0.00008130
-0.00007671
-0.00007195
-0.00006705
-0.00006204
-0.00005696
-0.00005186
-0.00004677
-0.00004173
-0.00003676
-0.00003189
-0.00002711
-0.00002241
-0.00001776
-0.00001314
-0.00000853
-0.00000394
0.00000062
0.00000516
0.00000964
0.00001408
0.00001850
0.00002289
0.00002724
0.00003153
0.00003577
0.00003993
0.00004402
0.00004804
0.00005200
0.00005591
0.00005978
0.00006359
0.00006734
0.00007100
0.00007459
0.00007809
0.00008156
0.00008502
0.00008853
0.00009210
0.00009571
0.00009936
0.00010306
0.00010681
0.00011063
0.00011454
0.00011852
0.00012257
0.00012667
0.00013083
0.00013506
0.00013935
0.00014371
0.00014817
0.00015271
0.00015732
0.00016198
0.00016666
0.00017136
0.00017606
0.00018079
0.00018557
0.00019041
0.00019531
0.00020030
0.00020537
0.00021054
0.00021580
0.00022112
0.00022650
0.00023191
0.00023732
0.00024272
0.00024808
0.00025339
0.00025865
0.00026389
0.00026911
0.00027431
0.00027949
0.00028466
0.00028982
0.00029500
0.00030020
0.00030543
0.00031067
0.00031592
0.00032117
0.00032639
0.00033155
0.00033662
0.00034160
0.00034653
0.00035140
0.00035625
0.00036104
0.00036579
0.00037048
0.00037514
0.00037979
0.00038448
0.00038922
0.00039406
0.00039900
0.00040406
0.00040927
0.00041463
0.00042012
0.00042572
0.00043142
0.00043719
0.00044301
0.00044890
0.00045484
0.00046081
0.00046680
0.00047276
0.00047868
0.00048455
0.00049036
0.00049609
0.00050170
0.00050719
0.00051255
0.00051778
0.00052289
0.00052786
0.00053272
0.00053748
0.00054216
0.00054675
0.00055128
0.00055574
0.00056018
0.00056460
0.00056902
0.00057343
0.00057787
0.00058235
0.00058692
0.00059160
0.00059639
0.00060127
0.00060622
0.00061124
0.00061633
0.00062149
0.00062673
0.00063204
0.00063744
0.00064291
0.00064844
0.00065405
0.00065971
0.00066540
0.00067108
0.00067670
0.00068221
0.00068756
0.00069274
0.00069773
0.00070255
0.00070716
0.00071156
0.00071571
0.00071962
0.00072328
0.00072670
0.00072993
0.00073296
0.00073582
0.00073850
0.00074102
0.00074342
0.00074568
0.00074780
0.00074974
0.00075145
0.00075293
0.00075418
0.00075521
0.00075599
0.00075649
0.00075668
0.00075655
0.00075610
0.00075531
0.00075413
0.00075252
0.00075043
0.00074785
0.00074478
0.00074122
0.00073713
0.00073248
0.00072727
0.00072149
0.00071517
0.00070834
0.00070104
0.00069327
0.00068506
0.00067642
0.00066737
0.00065791
0.00064803
0.00063772
0.00062696
0.00061575
0.00060411
0.00059201
0.00057946
0.00056643
0.00055290
0.00053888
0.00052434
0.00050928
0.00049371
0.00047766
0.00046115
0.00044418
0.00042677
0.00040894
0.00039074
0.00037221
0.00035337
0.00033422
0.00031478
0.00029507
0.00027511
0.00025494
0.00023457
0.00021405
0.00019337
0.00017254
0.00015154
0.00013037
0.00010902
0.00008749
0.00006578
0.00004394
0.00002198
-0.00000008
-0.00002224
-0.00004446
-0.00006671
-0.00008898
-0.00011125
-0.00013351
-0.00015576
-0.00017800
-0.00020023
-0.00022246
-0.00024471
-0.00026697
-0.00028923
-0.00031149
-0.00033373
-0.00035593
-0.00037808
-0.00040018
-0.00042222
-0.00044422
-0.00046621
-0.00048818
-0.00051013
-0.00053206
-0.00055397
-0.00057586
-0.00059771
-0.00061951
-0.00064125
-0.00066298
-0.00068470
-0.00070646
-0.00072826
-0.00075012
-0.00077204
-0.00079397
-0.00081592
-0.00083788
-0.00085983
-0.00088179
-0.00090378
-0.00092581
-0.00094792
-0.00097012
-0.00099241
-0.00101477
-0.00103714
-0.00105948
-0.00108178
-0.00110405
-0.00112629
-0.00114850
-0.00117067
-0.00119279
-0.00121483
-0.00123680
-0.00125869
-0.00128050
-0.00130222
-0.00132385
-0.00134540
-0.00136689
-0.00138833
-0.00140973
-0.00143109
-0.00145239
-0.00147359
-0.00149469
-0.00151565
-0.00153646
-0.00155710
-0.00157754
-0.00159775
-0.00161770
-0.00163736
-0.00165674
-0.00167586
-0.00169476
-0.00171348
-0.00173202
-0.00175038
-0.00176856
-0.00178657
-0.00180444
-0.00182214
-0.00183968
-0.00185703
-0.00187415
-0.00189103
-0.00190765
-0.00192401
-0.00194010
-0.00195589
-0.00197140
-0.00198659
-0.00200147
-0.00201600
-0.00203018
-0.00204396
-0.00205729
-0.00207016
-0.00208253
-0.00209440
-0.00210579
-0.00211668
-0.00212706
-0.00213697
-0.00214641
-0.00215542
-0.00216399
-0.00217210
-0.00217970
-0.00218675
-0.00219326
-0.00219922
-0.00220460
-0.00220939
-0.00221358
-0.00221717
-0.00222015
-0.00222253
-0.00222430
-0.00222549
-0.00222609
-0.00222608
-0.00222546
-0.00222421
-0.00222231
-0.00221976
-0.00221658
-0.00221278
-0.00220839
-0.00220344
-0.00219792
-0.00219184
-0.00218517
-0.00217791
-0.00217003
-0.00216151
-0.00215235
-0.00214257
-0.00213216
-0.00212109
-0.00210935
-0.00209694
-0.00208389
-0.00207020
-0.00205587
-0.00204089
-0.00202524
-0.00200895
-0.00199205
-0.00197456
-0.00195648
-0.00193777
-0.00191843
-0.00189845
-0.00187782
-0.00185653
-0.00183455
-0.00181188
-0.00178850
-0.00176438
-0.00173952
-0.00171395
-0.00168770
-0.00166083
-0.00163334
-0.00160525
-0.00157656
-0.00154727
-0.00151736
-0.00148684
-0.00145572
-0.00142401
-0.00139173
-0.00135893
-0.00132564
-0.00129192
-0.00125781
-0.00122335
-0.00118856
-0.00115349
-0.00111814
-0.00108251
-0.00104655
-0.00101025
-0.00097356
-0.00093647
-0.00089900
-0.00086114
-0.00082291
-0.00078433
-0.00074545
-0.00070630
-0.00066687
-0.00062719
-0.00058722
-0.00054695
-0.00050635
-0.00046540
-0.00042412
-0.00038250
-0.00034057
-0.00029833
-0.00025581
-0.00021302
-0.00016996
-0.00012662
-0.00008299
-0.00003903
0.00000522
0.00004977
0.00009464
0.00013984
0.00018537
0.00023124
0.00027744
0.00032396
0.00037076
0.00041783
0.00046514
0.00051267
0.00056041
0.00060836
0.00065651
0.00070485
0.00075339
0.00080210
0.00085095
0.00089992
0.00094900
0.00099818
0.00104748
0.00109686
0.00114631
0.00119582
0.00124538
0.00129500
0.00134469
0.00139445
0.00144431
0.00149424
0.00154426
0.00159435
0.00164446
0.00169454
0.00174456
0.00179448
0.00184425
0.00189383
0.00194318
0.00199226
0.00204101
0.00208942
0.00213746
0.00218509
0.00223231
0.00227910
0.00232545
0.00237136
0.00241680
0.00246175
0.00250617
0.00255007
0.00259345
0.00263632
0.00267868
0.00272051
0.00276179
0.00280249
0.00284259
0.00288205
0.00292086
0.00295900
0.00299641
0.00303308
0.00306901
0.00310424
0.00313881
0.00317270
0.00320589
0.00323834
0.00327002
0.00330092
0.00333105
0.00336042
0.00338902
0.00341685
0.00344391
0.00347019
0.00349569
0.00352043
0.00354441
0.00356765
0.00359012
0.00361185
0.00363284
0.00365314
0.00367277
0.00369176
0.00371010
0.00372777
0.00374475
0.00376102
0.00377656
0.00379132
0.00380532
0.00381854
0.00383099
0.00384263
0.00385346
0.00386345
0.00387259
0.00388092
0.00388847
0.00389526
0.00390133
0.00390668
0.00391134
0.00391530
0.00391856
0.00392113
0.00392302
0.00392426
0.00392488
0.00392493
0.00392445
0.00392348
0.00392204
0.00392009
0.00391763
0.00391463
0.00391111
0.00390710
0.00390261
0.00389764
0.00389217
0.00388619
0.00387967
0.00387265
0.00386515
0.00385719
0.00384875
0.00383981
0.00383037
0.00382042
0.00380998
0.00379902
0.00378755
0.00377555
0.00376305
0.00375006
0.00373660
0.00372270
0.00370838
0.00369363
0.00367844
0.00366278
0.00364668
0.00363014
0.00361318
0.00359580
0.00357795
0.00355963
0.00354082
0.00352153
0.00350174
0.00348146
0.00346066
0.00343934
0.00341751
0.00339519
0.00337243
0.00334926
0.00332570
0.00330178
0.00327751
0.00325287
0.00322785
0.00320243
0.00317660
0.00315034
0.00312363
0.00309649
0.00306890
0.00304090
0.00301252
0.00298377
0.00295466
0.00292521
0.00289543
0.00286535
0.00283496
0.00280428
0.00277334
0.00274215
0.00271072
0.00267905
0.00264716
0.00261505
0.00258273
0.00255023
0.00251755
0.00248469
0.00245163
0.00241831
0.00238474
0.00235091
0.00231685
0.00228261
0.00224821
0.00221366
0.00217895
0.00214407
0.00210901
0.00207378
0.00203840
0.00200294
0.00196744
0.00193194
0.00189645
0.00186099
0.00182558
0.00179026
0.00175504
0.00171992
0.00168492
0.00165001
0.00161519
0.00158045
0.00154577
0.00151115
0.00147662
0.00144224
0.00140803
0.00137401
0.00134020
0.00130660
0.00127320
0.00123999
0.00120696
0.00117412
0.00114144
0.00110892
0.00107654
0.00104428
0.00101214
0.00098012
0.00094821
0.00091638
0.00088464
0.00085296
0.00082132
0.00078971
0.00075813
0.00072660
0.00069514
0.00066376
0.00063249
0.00060134
0.00057030
0.00053940
0.00050860
0.00047790
0.00044728
0.00041674
0.00038630
0.00035598
0.00032576
0.00029562
0.00026554
0.00023550
0.00020550
0.00017553
0.00014558
0.00011568
0.00008582
0.00005602
0.00002625
-0.00000351
-0.00003327
-0.00006302
-0.00009277
-0.00012251
-0.00015225
-0.00018196
-0.00021164
-0.00024128
-0.00027084
-0.00030034
-0.00032975
-0.00035907
-0.00038829
-0.00041738
-0.00044636
-0.00047525
-0.00050406
-0.00053274
-0.00056127
-0.00058958
-0.00061761
-0.00064535
-0.00067277
-0.00069987
-0.00072666
-0.00075314
-0.00077934
-0.00080530
-0.00083106
-0.00085665
-0.00088208
-0.00090735
-0.00093243
-0.00095732
-0.00098199
-0.00100641
-0.00103059
-0.00105453
-0.00107828
-0.00110186
-0.00112528
-0.00114857
-0.00117172
-0.00119472
-0.00121756
-0.00124022
-0.00126273
-0.00128509
-0.00130735
-0.00132952
-0.00135158
-0.00137353
-0.00139535
-0.00141703
-0.00143852
-0.00145979
-0.00148083
-0.00150166
-0.00152232
-0.00154284
-0.00156326
-0.00158359
-0.00160382
-0.00162394
-0.00164396
-0.00166387
-0.00168368
-0.00170337
-0.00172295
-0.00174242
-0.00176176
-0.00178096
-0.00180003
-0.00181897
-0.00183781
-0.00185657
-0.00187525
-0.00189384
-0.00191236
-0.00193078
-0.00194911
-0.00196733
-0.00198543
-0.00200341
-0.00202127
-0.00203899
-0.00205658
-0.00207404
-0.00209140
-0.00210863
-0.00212572
-0.00214262
-0.00215931
-0.00217575
-0.00219190
-0.00220770
-0.00222312
-0.00223815
-0.00225280
-0.00226707
-0.00228098
-0.00229452
-0.00230769
-0.00232047
-0.00233282
-0.00234470
-0.00235610
-0.00236695
-0.00237723
-0.00238688
-0.00239589
-0.00240426
-0.00241198
-0.00241905
-0.00242546
-0.00243120
-0.00243628
-0.00244068
-0.00244438
-0.00244734
-0.00244957
-0.00245103
-0.00245174
-0.00245168
-0.00245086
-0.00244930
-0.00244700
-0.00244396
-0.00244017
-0.00243562
-0.00243029
-0.00242417
-0.00241724
-0.00240951
-0.00240098
-0.00239168
-0.00238161
-0.00237082
-0.00235935
-0.00234724
-0.00233454
-0.00232126
-0.00230741
-0.00229299
-0.00227800
-0.00226245
-0.00224634
-0.00222965
-0.00221239
-0.00219455
-0.00217615
-0.00215720
-0.00213769
-0.00211764
-0.00209705
-0.00207595
-0.00205432
-0.00203216
-0.00200949
-0.00198631
-0.00196266
-0.00193859
-0.00191410
-0.00188920
-0.00186386
-0.00183807
-0.00181184
-0.00178518
-0.00175812
-0.00173065
-0.00170281
-0.00167461
-0.00164607
-0.00161723
-0.00158812
-0.00155877
-0.00152921
-0.00149945
-0.00146946
-0.00143923
-0.00140875
-0.00137801
-0.00134699
-0.00131567
-0.00128400
-0.00125195
-0.00121953
-0.00118672
-0.00115357
-0.00112010
-0.00108635
-0.00105235
-0.00101812
-0.00098369
-0.00094905
-0.00091419
-0.00087910
-0.00084381
-0.00080838
-0.00077283
-0.00073720
-0.00070149
-0.00066573
-0.00062992
-0.00059408
-0.00055820
-0.00052229
-0.00048637
-0.00045043
-0.00041449
-0.00037855
-0.00034265
-0.00030677
-0.00027091
-0.00023507
-0.00019923
-0.00016339
-0.00012750
-0.00009155
-0.00005554
-0.00001950
0.00001653
0.00005249
0.00008836
0.00012410
0.00015971
0.00019516
0.00023048
0.00026565
0.00030065
0.00033541
0.00036983
0.00040384
0.00043740
0.00047050
0.00050315
0.00053537
0.00056717
0.00059853
0.00062943
0.00065984
0.00068975
0.00071917
0.00074809
0.00077651
0.00080443
0.00083187
0.00085881
0.00088527
0.00091120
0.00093658
0.00096138
0.00098559
0.00100918
0.00103216
0.00105451
0.00107616
0.00109711
0.00111731
0.00113677
0.00115548
0.00117346
0.00119074
0.00120733
0.00122324
0.00123845
0.00125294
0.00126668
0.00127969
0.00129194
0.00130344
0.00131416
0.00132410
0.00133329
0.00134171
0.00134937
0.00135626
0.00136237
0.00136771
0.00137230
0.00137614
0.00137921
0.00138151
0.00138302
0.00138376
0.00138374
0.00138299
0.00138152
0.00137932
0.00137639
0.00137276
0.00136842
0.00136339
0.00135766
0.00135125
0.00134420
0.00133656
0.00132833
0.00131951
0.00131007
0.00130003
0.00128939
0.00127818
0.00126642
0.00125411
0.00124125
0.00122784
0.00121390
0.00119945
0.00118455
0.00116925
0.00115360
0.00113766
0.00112145
0.00110500
0.00108833
0.00107147
0.00105441
0.00103716
0.00101976
0.00100222
0.00098457
0.00096680
0.00094886
0.00093074
0.00091237
0.00089373
0.00087481
0.00085562
0.00083616
0.00081646
0.00079652
0.00077634
0.00075591
0.00073520
0.00071424
0.00069301
0.00067152
0.00064979
0.00062785
0.00060573
0.00058346
0.00056105
0.00053851
0.00051588
0.00049318
0.00047046
0.00044774
0.00042509
0.00040254
0.00038010
0.00035782
0.00033569
0.00031371
0.00029187
0.00027016
0.00024857
0.00022710
0.00020576
0.00018457
0.00016353
0.00014268
0.00012203
0.00010162
0.00008145
0.00006154
0.00004189
0.00002255
0.00000352
-0.00001517
-0.00003353
-0.00005155
-0.00006924
-0.00008660
-0.00010365
-0.00012041
-0.00013693
-0.00015324
-0.00016938
-0.00018536
-0.00020123
-0.00021703
-0.00023283
-0.00024866
-0.00026452
-0.00028037
-0.00029616
-0.00031183
-0.00032734
-0.00034264
-0.00035770
-0.00037251
-0.00038705
-0.00040132
-0.00041528
-0.00042893
-0.00044223
-0.00045519
-0.00046781
-0.00048009
-0.00049207
-0.00050374
-0.00051511
-0.00052618
-0.00053694
-0.00054741
-0.00055756
-0.00056742
-0.00057699
-0.00058628
-0.00059530
-0.00060405
-0.00061255
-0.00062082
-0.00062888
-0.00063674
-0.00064439
-0.00065183
-0.00065904
-0.00066599
-0.00067265
-0.00067900
-0.00068502
-0.00069072
-0.00069612
-0.00070122
-0.00070600
-0.00071047
-0.00071465
-0.00071851
-0.00072202
-0.00072516
-0.00072791
-0.00073031
-0.00073236
-0.00073405
-0.00073540
-0.00073641
-0.00073711
-0.00073751
-0.00073764
-0.00073755
-0.00073729
-0.00073695
-0.00073655
-0.00073610
-0.00073560
-0.00073507
-0.00073452
-0.00073397
-0.00073343
-0.00073292
-0.00073249
-0.00073215
-0.00073189
-0.00073169
-0.00073150
-0.00073131
-0.00073111
-0.00073091
-0.00073070
-0.00073052
-0.00073039
-0.00073034
-0.00073042
-0.00073063
-0.00073099
-0.00073150
-0.00073215
-0.00073296
-0.00073392
-0.00073504
-0.00073630
-0.00073771
-0.00073927
-0.00074096
-0.00074277
-0.00074472
-0.00074678
-0.00074898
-0.00075131
-0.00075380
-0.00075643
-0.00075922
-0.00076217
-0.00076530
-0.00076859
-0.00077202
-0.00077560
-0.00077933
-0.00078323
-0.00078731
-0.00079158
-0.00079607
-0.00080079
-0.00080572
-0.00081083
-0.00081609
-0.00082145
-0.00082688
-0.00083236
-0.00083788
-0.00084342
-0.00084899
-0.00085460
-0.00086024
-0.00086591
-0.00087158
-0.00087722
-0.00088281
-0.00088833
-0.00089376
-0.00089910
-0.00090432
-0.00090942
-0.00091443
-0.00091935
-0.00092418
-0.00092893
-0.00093357
-0.00093807
-0.00094238
-0.00094645
-0.00095024
-0.00095371
-0.00095688
-0.00095973
-0.00096229
-0.00096455
-0.00096652
-0.00096819
-0.00096953
-0.00097053
-0.00097122
-0.00097161
-0.00097168
-0.00097144
-0.00097088
-0.00097003
-0.00096889
-0.00096745
-0.00096575
-0.00096381
-0.00096167
-0.00095936
-0.00095691
-0.00095430
-0.00095151
-0.00094849
-0.00094522
-0.00094167
-0.00093786
-0.00093384
-0.00092964
-0.00092534
-0.00092098
-0.00091660
-0.00091221
-0.00090782
-0.00090344
-0.00089907
-0.00089473
-0.00089045
-0.00088623
-0.00088204
-0.00087786
-0.00087366
-0.00086946
-0.00086527
-0.00086111
-0.00085700
-0.00085294
-0.00084895
-0.00084507
-0.00084131
-0.00083767
-0.00083414
-0.00083069
-0.00082732
-0.00082402
-0.00082077
-0.00081754
-0.00081432
-0.00081111
-0.00080790
-0.00080469
-0.00080145
-0.00079817
-0.00079484
-0.00079146
-0.00078803
-0.00078454
-0.00078101
-0.00077741
-0.00077374
-0.00076998
-0.00076611
-0.00076213
-0.00075804
-0.00075383
-0.00074949
-0.00074504
-0.00074047
-0.00073579
-0.00073098
-0.00072602
-0.00072090
-0.00071560
-0.00071014
-0.00070452
-0.00069876
-0.00069289
-0.00068692
-0.00068085
-0.00067470
-0.00066848
-0.00066215
-0.00065569
-0.00064910
-0.00064238
-0.00063556
-0.00062863
-0.00062160
-0.00061444
-0.00060715
-0.00059974
-0.00059224
-0.00058469
-0.00057711
-0.00056952
-0.00056189
-0.00055421
-0.00054646
-0.00053865
-0.00053078
-0.00052285
-0.00051486
-0.00050681
-0.00049870
-0.00049050
-0.00048219
-0.00047375
-0.00046517
-0.00045646
-0.00044760
-0.00043860
-0.00042944
-0.00042010
-0.00041059
-0.00040088
-0.00039099
-0.00038093
-0.00037071
-0.00036036
-0.00034990
-0.00033935
-0.00032873
-0.00031806
-0.00030733
-0.00029656
-0.00028573
-0.00027485
-0.00026392
-0.00025297
-0.00024205
-0.00023121
-0.00022047
-0.00020982
-0.00019925
-0.00018875
-0.00017831
-0.00016791
-0.00015756
-0.00014723
-0.00013695
-0.00012673
-0.00011664
-0.00010669
-0.00009693
-0.00008735
-0.00007796
-0.00006876
-0.00005974
-0.00005089
-0.00004221
-0.00003366
-0.00002524
-0.00001692
-0.00000867
-0.00000047
0.00000772
0.00001593
0.00002416
0.00003242
0.00004070
0.00004901
0.00005733
0.00006566
0.00007399
0.00008232
0.00009065
0.00009899
0.00010736
0.00011575
0.00012413
0.00013250
0.00014083
0.00014912
0.00015734
0.00016543
0.00017336
0.00018111
0.00018867
0.00019605
0.00020328
0.00021035
0.00021727
0.00022403
0.00023061
0.00023697
0.00024310
0.00024893
0.00025442
0.00025953
0.00026426
0.00026860
0.00027256
0.00027610
0.00027921
0.00028189
0.00028414
0.00028597
0.00028739
0.00028838
0.00028892
0.00028902
0.00028870
0.00028795
0.00028681
0.00028529
0.00028341
0.00028118
0.00027861
0.00027568
0.00027242
0.00026883
0.00026491
0.00026067
0.00025609
0.00025116
0.00024585
0.00024015
0.00023404
0.00022752
0.00022064
0.00021342
0.00020588
0.00019804
0.00018991
0.00018151
0.00017283
0.00016386
0.00015460
0.00014504
0.00013514
0.00012487
0.00011423
0.00010323
0.00009188
0.00008019
0.00006815
0.00005574
0.00004295
0.00002976
0.00001618
0.00000218
-0.00001222
-0.00002701
-0.00004216
-0.00005767
-0.00007351
-0.00008969
-0.00010620
-0.00012305
-0.00014023
-0.00015777
-0.00017570
-0.00019404
-0.00021277
-0.00023188
-0.00025134
-0.00027116
-0.00029131
-0.00031179
-0.00033260
-0.00035375
-0.00037524
-0.00039709
-0.00041931
-0.00044189
-0.00046479
-0.00048801
-0.00051150
-0.00053525
-0.00055922
-0.00058335
-0.00060759
-0.00063192
-0.00065627
-0.00068062
-0.00070494
-0.00072917
-0.00075332
-0.00077736
-0.00080126
-0.00082495
-0.00084841
-0.00087162
-0.00089456
-0.00091722
-0.00093959
-0.00096165
-0.00098338
-0.00100475
-0.00102576
-0.00104639
-0.00106665
-0.00108655
-0.00110613
-0.00112542
-0.00114445
-0.00116324
-0.00118179
-0.00120011
-0.00121818
-0.00123595
-0.00125340
-0.00127048
-0.00128715
-0.00130340
-0.00131922
-0.00133465
-0.00134970
-0.00136440
-0.00137872
-0.00139265
-0.00140619
-0.00141933
-0.00143207
-0.00144441
-0.00145636
-0.00146790
-0.00147900
-0.00148963
-0.00149976
-0.00150940
-0.00151859
-0.00152733
-0.00153567
-0.00154359
-0.00155110
-0.00155817
-0.00156480
-0.00157098
-0.00157672
-0.00158201
-0.00158687
-0.00159127
-0.00159519
-0.00159864
-0.00160160
-0.00160409
-0.00160612
-0.00160768
-0.00160879
-0.00160943
-0.00160960
-0.00160928
-0.00160842
-0.00160699
-0.00160496
-0.00160234
-0.00159913
-0.00159532
-0.00159091
-0.00158589
-0.00158028
-0.00157407
-0.00156727
-0.00155985
-0.00155182
-0.00154318
-0.00153392
-0.00152403
-0.00151349
-0.00150232
-0.00149051
-0.00147807
-0.00146499
-0.00145127
-0.00143689
-0.00142187
-0.00140622
-0.00138998
-0.00137314
-0.00135571
-0.00133770
-0.00131909
-0.00129986
-0.00128001
-0.00125956
-0.00123852
-0.00121690
-0.00119470
-0.00117194
-0.00114864
-0.00112482
-0.00110050
-0.00107566
-0.00105028
-0.00102434
-0.00099783
-0.00097072
-0.00094299
-0.00091462
-0.00088563
-0.00085604
-0.00082586
-0.00079511
-0.00076377
-0.00073185
-0.00069935
-0.00066631
-0.00063274
-0.00059865
-0.00056403
-0.00052886
-0.00049314
-0.00045686
-0.00041999
-0.00038258
-0.00034464
-0.00030621
-0.00026729
-0.00022789
-0.00018800
-0.00014761
-0.00010674
-0.00006541
-0.00002365
0.00001850
0.00006102
0.00010386
0.00014695
0.00019023
0.00023372
0.00027741
0.00032128
0.00036529
0.00040940
0.00045358
0.00049783
0.00054216
0.00058654
0.00063095
0.00067534
0.00071967
0.00076390
0.00080796
0.00085181
0.00089539
0.00093865
0.00098154
0.00102404
0.00106615
0.00110786
0.00114914
0.00118998
0.00123038
0.00127034
0.00130987
0.00134895
0.00138758
0.00142572
0.00146335
0.00150046
0.00153707
0.00157320
0.00160888
0.00164409
0.00167884
0.00171308
0.00174681
0.00178002
0.00181268
0.00184481
0.00187639
0.00190743
0.00193787
0.00196765
0.00199674
0.00202510
0.00205272
0.00207959
0.00210571
0.00213107
0.00215566
0.00217946
0.00220245
0.00222460
0.00224589
0.00226629
0.00228579
0.00230438
0.00232204
0.00233877
0.00235456
0.00236943
0.00238340
0.00239649
0.00240872
0.00242006
0.00243053
0.00244014
0.00244894
0.00245696
0.00246422
0.00247074
0.00247651
0.00248154
0.00248586
0.00248952
0.00249253
0.00249492
0.00249671
0.00249795
0.00249865
0.00249885
0.00249858
0.00249788
0.00249677
0.00249528
0.00249344
0.00249124
0.00248870
0.00248581
0.00248259
0.00247905
0.00247517
0.00247096
0.00246642
0.00246155
0.00245633
0.00245076
0.00244483
0.00243853
0.00243185
0.00242480
0.00241735
0.00240949
0.00240119
0.00239242
0.00238318
0.00237341
0.00236307
0.00235212
0.00234052
0.00232824
0.00231531
0.00230172
0.00228748
0.00227262
0.00225718
0.00224118
0.00222465
0.00220761
0.00219009
0.00217209
0.00215362
0.00213471
0.00211536
0.00209557
0.00207534
0.00205465
0.00203351
0.00201190
0.00198985
0.00196738
0.00194451
0.00192128
0.00189771
0.00187382
0.00184960
0.00182504
0.00180016
0.00177497
0.00174947
0.00172371
0.00169773
0.00167156
0.00164525
0.00161878
0.00159214
0.00156534
0.00153839
0.00151131
0.00148409
0.00145674
0.00142927
0.00140169
0.00137399
0.00134621
0.00131836
0.00129049
0.00126262
0.00123479
0.00120699
0.00117924
0.00115154
0.00112393
0.00109645
0.00106916
0.00104207
0.00101520
0.00098854
0.00096212
0.00093594
0.00091000
0.00088430
0.00085881
0.00083353
0.00080845
0.00078353
0.00075873
0.00073401
0.00070935
0.00068474
0.00066017
0.00063562
0.00061111
0.00058661
0.00056212
0.00053767
0.00051324
0.00048885
0.00046451
0.00044021
0.00041597
0.00039179
0.00036765
0.00034356
0.00031952
0.00029552
0.00027157
0.00024768
0.00022384
0.00020004
0.00017630
0.00015264
0.00012906
0.00010555
0.00008208
0.00005865
0.00003525
0.00001188
-0.00001143
-0.00003465
-0.00005779
-0.00008082
-0.00010372
-0.00012645
-0.00014900
-0.00017135
-0.00019348
-0.00021535
-0.00023694
-0.00025823
-0.00027920
-0.00029987
-0.00032021
-0.00034021
-0.00035985
-0.00037910
-0.00039798
-0.00041646
-0.00043454
-0.00045220
-0.00046945
-0.00048631
-0.00050280
-0.00051895
-0.00053475
-0.00055020
-0.00056530
-0.00058007
-0.00059453
-0.00060870
-0.00062259
-0.00063624
-0.00064969
-0.00066296
-0.00067605
-0.00068899
-0.00070178
-0.00071441
-0.00072687
-0.00073912
-0.00075116
-0.00076297
-0.00077454
-0.00078582
-0.00079682
-0.00080751
-0.00081789
-0.00082795
-0.00083769
-0.00084715
-0.00085630
-0.00086512
-0.00087362
-0.00088179
-0.00088965
-0.00089721
-0.00090447
-0.00091146
-0.00091816
-0.00092459
-0.00093075
-0.00093661
-0.00094215
-0.00094734
-0.00095217
-0.00095665
-0.00096077
-0.00096456
-0.00096803
-0.00097118
-0.00097399
-0.00097643
-0.00097850
-0.00098016
-0.00098142
-0.00098226
-0.00098266
-0.00098262
-0.00098211
-0.00098114
-0.00097971
-0.00097780
-0.00097543
-0.00097258
-0.00096923
-0.00096538
-0.00096103
-0.00095618
-0.00095084
-0.00094502
-0.00093872
-0.00093196
-0.00092478
-0.00091722
-0.00090934
-0.00090117
-0.00089276
-0.00088414
-0.00087534
-0.00086636
-0.00085722
-0.00084788
-0.00083836
-0.00082864
-0.00081874
-0.00080868
-0.00079847
-0.00078813
-0.00077769
-0.00076718
-0.00075663
-0.00074607
-0.00073550
-0.00072499
-0.00071454
-0.00070414
-0.00069375
-0.00068335
-0.00067295
-0.00066255
-0.00065216
-0.00064176
-0.00063137
-0.00062097
-0.00061060
-0.00060028
-0.00059004
-0.00057990
-0.00056988
-0.00055999
-0.00055023
-0.00054063
-0.00053118
-0.00052189
-0.00051273
-0.00050367
-0.00049472
-0.00048589
-0.00047716
-0.00046854
-0.00046003
-0.00045165
-0.00044339
-0.00043526
-0.00042725
-0.00041935
-0.00041159
-0.00040398
-0.00039655
-0.00038933
-0.00038237
-0.00037569
-0.00036932
-0.00036326
-0.00035753
-0.00035213
-0.00034710
-0.00034246
-0.00033823
-0.00033438
-0.00033091
-0.00032779
-0.00032500
-0.00032254
-0.00032041
-0.00031861
-0.00031713
-0.00031596
-0.00031507
-0.00031445
-0.00031410
-0.00031401
-0.00031420
-0.00031463
-0.00031532
-0.00031625
-0.00031743
-0.00031885
-0.00032051
-0.00032238
-0.00032444
-0.00032666
-0.00032900
-0.00033144
-0.00033395
-0.00033651
-0.00033911
-0.00034172
-0.00034430
-0.00034682
-0.00034924
-0.00035152
-0.00035366
-0.00035565
-0.00035748
-0.00035910
-0.00036041
-0.00036136
-0.00036189
-0.00036195
-0.00036153
-0.00036062
-0.00035923
-0.00035738
-0.00035507
-0.00035232
-0.00034914
-0.00034555
-0.00034156
-0.00033720
-0.00033248
-0.00032742
-0.00032205
-0.00031637
-0.00031036
-0.00030400
-0.00029728
-0.00029021
-0.00028280
-0.00027511
-0.00026716
-0.00025898
-0.00025061
-0.00024209
-0.00023344
-0.00022468
-0.00021583
-0.00020688
-0.00019782
-0.00018866
-0.00017943
-0.00017019
-0.00016097
-0.00015181
-0.00014269
-0.00013360
-0.00012454
-0.00011549
-0.00010644
-0.00009737
-0.00008828
-0.00007917
-0.00007004
-0.00006089
-0.00005171
-0.00004253
-0.00003335
-0.00002421
-0.00001511
-0.00000606
0.00000296
0.00001196
0.00002096
0.00002997
0.00003897
0.00004796
0.00005696
0.00006597
0.00007501
0.00008405
0.00009308
0.00010208
0.00011107
0.00012006
0.00012909
0.00013819
0.00014737
0.00015662
0.00016591
0.00017524
0.00018461
0.00019403
0.00020352
0.00021311
0.00022280
0.00023258
0.00024244
0.00025236
0.00026233
0.00027236
0.00028246
0.00029261
0.00030282
0.00031310
0.00032344
0.00033385
0.00034432
0.00035487
0.00036548
0.00037614
0.00038685
0.00039762
0.00040845
0.00041934
0.00043027
0.00044124
0.00045222
0.00046317
0.00047409
0.00048496
0.00049580
0.00050661
0.00051740
0.00052820
0.00053901
0.00054984
0.00056068
0.00057157
0.00058251
0.00059352
0.00060460
0.00061575
0.00062702
0.00063841
0.00064995
0.00066163
0.00067343
0.00068532
0.00069728
0.00070928
0.00072131
0.00073336
0.00074547
0.00075765
0.00076992
0.00078230
0.00079479
0.00080741
0.00082015
0.00083302
0.00084600
0.00085911
0.00087234
0.00088566
0.00089908
0.00091260
0.00092622
0.00093997
0.00095385
0.00096787
0.00098204
0.00099635
0.00101078
0.00102535
0.00104009
0.00105500
0.00107008
0.00108533
0.00110076
0.00111638
0.00113221
0.00114824
0.00116447
0.00118090
0.00119751
0.00121429
0.00123123
0.00124830
0.00126548
0.00128277
0.00130012
0.00131752
0.00133492
0.00135229
0.00136964
0.00138696
0.00140421
0.00142136
0.00143841
0.00145534
0.00147216
0.00148885
0.00150541
0.00152182
0.00153809
0.00155423
0.00157024
0.00158611
0.00160181
0.00161733
0.00163266
0.00164780
0.00166276
0.00167752
0.00169205
0.00170634
0.00172039
0.00173418
0.00174767
0.00176083
0.00177361
0.00178599
0.00179796
0.00180951
0.00182062
0.00183130
0.00184155
0.00185135
0.00186070
0.00186955
0.00187790
0.00188573
0.00189304
0.00189981
0.00190602
0.00191166
0.00191670
0.00192115
0.00192501
0.00192829
0.00193099
0.00193313
0.00193472
0.00193576
0.00193626
0.00193622
0.00193568
0.00193468
0.00193327
0.00193153
0.00192954
0.00192733
0.00192493
0.00192230
0.00191943
0.00191631
0.00191293
0.00190933
0.00190551
0.00190148
0.00189723
0.00189270
0.00188782
0.00188254
0.00187683
0.00187071
0.00186418
0.00185723
0.00184986
0.00184207
0.00183386
0.00182525
0.00181620
0.00180673
0.00179683
0.00178655
0.00177593
0.00176502
0.00175384
0.00174244
0.00173085
0.00171908
0.00170716
0.00169511
0.00168293
0.00167060
0.00165811
0.00164541
0.00163253
0.00161947
0.00160626
0.00159290
0.00157937
0.00156566
0.00155177
0.00153771
0.00152348
0.00150907
0.00149446
0.00147962
0.00146454
0.00144923
0.00143370
0.00141793
0.00140190
0.00138558
0.00136897
0.00135207
0.00133488
0.00131739
0.00129958
0.00128146
0.00126302
0.00124423
0.00122509
0.00120558
0.00118569
0.00116542
0.00114478
0.00112374
0.00110226
0.00108034
0.00105796
0.00103512
0.00101180
0.00098802
0.00096377
0.00093910
0.00091400
0.00088849
0.00086256
0.00083623
0.00080949
0.00078236
0.00075482
0.00072687
0.00069852
0.00066979
0.00064070
0.00061127
0.00058150
0.00055135
0.00052080
0.00048984
0.00045847
0.00042669
0.00039450
0.00036191
0.00032890
0.00029549
0.00026169
0.00022752
0.00019302
0.00015820
0.00012305
0.00008754
0.00005166
0.00001540
-0.00002122
-0.00005820
-0.00009556
-0.00013333
-0.00017152
-0.00021010
-0.00024906
-0.00028841
-0.00032813
-0.00036818
-0.00040853
-0.00044917
-0.00049007
-0.00053123
-0.00057261
-0.00061421
-0.00065602
-0.00069799
-0.00074007
-0.00078221
-0.00082438
-0.00086657
-0.00090878
-0.00095098
-0.00099317
-0.00103531
-0.00107739
-0.00111940
-0.00116132
-0.00120311
-0.00124472
-0.00128612
-0.00132730
-0.00136824
-0.00140893
-0.00144936
-0.00148951
-0.00152934
-0.00156881
-0.00160788
-0.00164652
-0.00168473
-0.00172253
-0.00175992
-0.00179687
-0.00183339
-0.00186946
-0.00190506
-0.00194022
-0.00197492
-0.00200917
-0.00204292
-0.00207615
-0.00210881
-0.00214086
-0.00217231
-0.00220317
-0.00223349
-0.00226330
-0.00229262
-0.00232148
-0.00234988
-0.00237782
-0.00240526
-0.00243220
-0.00245860
-0.00248444
-0.00250970
-0.00253439
-0.00255845
-0.00258191
-0.00260475
-0.00262702
-0.00264871
-0.00266981
-0.00269033
-0.00271029
-0.00272974
-0.00274873
-0.00276729
-0.00278542
-0.00280310
-0.00282033
-0.00283707
-0.00285331
-0.00286902
-0.00288420
-0.00289880
-0.00291277
-0.00292609
-0.00293876
-0.00295080
-0.00296224
-0.00297311
-0.00298341
-0.00299319
-0.00300245
-0.00301120
-0.00301945
-0.00302718
-0.00303441
-0.00304110
-0.00304724
-0.00305277
-0.00305769
-0.00306198
-0.00306565
-0.00306871
-0.00307119
-0.00307310
-0.00307447
-0.00307529
-0.00307558
-0.00307537
-0.00307465
-0.00307343
-0.00307171
-0.00306950
-0.00306681
-0.00306364
-0.00305999
-0.00305589
-0.00305132
-0.00304630
-0.00304083
-0.00303492
-0.00302856
-0.00302174
-0.00301445
-0.00300669
-0.00299849
-0.00298985
-0.00298076
-0.00297124
-0.00296130
-0.00295093
-0.00294016
-0.00292894
-0.00291723
-0.00290494
-0.00289209
-0.00287869
-0.00286476
-0.00285032
-0.00283537
-0.00281992
-0.00280402
-0.00278769
-0.00277094
-0.00275379
-0.00273622
-0.00271822
-0.00269978
-0.00268089
-0.00266154
-0.00264172
-0.00262142
-0.00260062
-0.00257930
-0.00255742
-0.00253492
-0.00251176
-0.00248790
-0.00246336
-0.00243819
-0.00241241
-0.00238609
-0.00235925
-0.00233192
-0.00230411
-0.00227581
-0.00224705
-0.00221785
-0.00218823
-0.00215824
-0.00212791
-0.00209726
-0.00206628
-0.00203497
-0.00200332
-0.00197134
-0.00193903
-0.00190639
-0.00187343
-0.00184013
-0.00180648
-0.00177250
-0.00173820
-0.00170358
-0.00166863
-0.00163336
-0.00159780
-0.00156197
-0.00152588
-0.00148954
-0.00145293
-0.00141609
-0.00137903
-0.00134180
-0.00130442
-0.00126694
-0.00122938
-0.00119179
-0.00115420
-0.00111666
-0.00107920
-0.00104186
-0.00100466
-0.00096764
-0.00093083
-0.00089424
-0.00085788
-0.00082174
-0.00078582
-0.00075016
-0.00071476
-0.00067963
-0.00064477
-0.00061019
-0.00057592
-0.00054198
-0.00050839
-0.00047520
-0.00044241
-0.00041002
-0.00037800
-0.00034632
-0.00031497
-0.00028395
-0.00025325
-0.00022289
-0.00019288
-0.00016325
-0.00013406
-0.00010533
-0.00007712
-0.00004944
-0.00002234
0.00000417
0.00003009
0.00005543
0.00008019
0.00010438
0.00012799
0.00015100
0.00017338
0.00019510
0.00021618
0.00023662
0.00025642
0.00027557
0.00029407
0.00031192
0.00032911
0.00034563
0.00036144
0.00037654
0.00039091
0.00040458
0.00041755
0.00042984
0.00044148
0.00045248
0.00046286
0.00047266
0.00048191
0.00049064
0.00049886
0.00050658
0.00051377
0.00052042
0.00052652
0.00053207
0.00053710
0.00054162
0.00054569
0.00054932
0.00055254
0.00055536
0.00055779
0.00055985
0.00056153
0.00056283
0.00056370
0.00056413
0.00056410
0.00056356
0.00056251
0.00056090
0.00055873
0.00055599
0.00055269
0.00054886
0.00054453
0.00053973
0.00053446
0.00052872
0.00052248
0.00051578
0.00050862
0.00050101
0.00049294
0.00048442
0.00047546
0.00046607
0.00045627
0.00044608
0.00043551
0.00042458
0.00041331
0.00040169
0.00038971
0.00037737
0.00036470
0.00035172
0.00033846
0.00032493
0.00031114
0.00029707
0.00028274
0.00026814
0.00025330
0.00023824
0.00022297
0.00020748
0.00019176
0.00017578
0.00015951
0.00014292
0.00012597
0.00010867
0.00009106
0.00007314
0.00005496
0.00003651
0.00001782
-0.00000112
-0.00002032
-0.00003976
-0.00005943
-0.00007934
-0.00009948
-0.00011983
-0.00014035
-0.00016099
-0.00018169
-0.00020241
-0.00022315
-0.00024387
-0.00026458
-0.00028526
-0.00030591
-0.00032651
-0.00034707
-0.00036759
-0.00038808
-0.00040852
-0.00042893
-0.00044930
-0.00046962
-0.00048991
-0.00051018
-0.00053046
-0.00055074
-0.00057103
-0.00059133
-0.00061166
-0.00063200
-0.00065235
-0.00067269
-0.00069303
-0.00071342
-0.00073391
-0.00075454
-0.00077531
-0.00079623
-0.00081731
-0.00083854
-0.00085990
-0.00088136
-0.00090288
-0.00092442
-0.00094596
-0.00096749
-0.00098900
-0.00101051
-0.00103198
-0.00105340
-0.00107472
-0.00109590
-0.00111690
-0.00113770
-0.00115825
-0.00117855
-0.00119862
-0.00121848
-0.00123817
-0.00125766
-0.00127693
-0.00129594
-0.00131470
-0.00133323
-0.00135157
-0.00136976
-0.00138781
-0.00140568
-0.00142334
-0.00144075
-0.00145788
-0.00147474
-0.00149129
-0.00150751
-0.00152341
-0.00153899
-0.00155425
-0.00156921
-0.00158387
-0.00159824
-0.00161228
-0.00162595
-0.00163921
-0.00165204
-0.00166442
-0.00167637
-0.00168791
-0.00169905
-0.00170981
-0.00172015
-0.00173006
-0.00173953
-0.00174851
-0.00175698
-0.00176491
-0.00177230
-0.00177913
-0.00178537
-0.00179106
-0.00179626
-0.00180102
-0.00180540
-0.00180942
-0.00181307
-0.00181636
-0.00181930
-0.00182189
-0.00182413
-0.00182602
-0.00182754
-0.00182867
-0.00182940
-0.00182972
-0.00182960
-0.00182901
-0.00182793
-0.00182633
-0.00182419
-0.00182150
-0.00181826
-0.00181445
-0.00181006
-0.00180504
-0.00179937
-0.00179304
-0.00178604
-0.00177837
-0.00177002
-0.00176101
-0.00175131
-0.00174093
-0.00172984
-0.00171801
-0.00170548
-0.00169226
-0.00167839
-0.00166388
-0.00164875
-0.00163297
-0.00161652
-0.00159938
-0.00158151
-0.00156293
-0.00154362
-0.00152356
-0.00150276
-0.00148121
-0.00145895
-0.00143597
-0.00141229
-0.00138794
-0.00136297
-0.00133740
-0.00131126
-0.00128453
-0.00125724
-0.00122939
-0.00120103
-0.00117218
-0.00114288
-0.00111313
-0.00108293
-0.00105227
-0.00102116
-0.00098959
-0.00095756
-0.00092511
-0.00089222
-0.00085890
-0.00082515
-0.00079097
-0.00075633
-0.00072123
-0.00068569
-0.00064973
-0.00061336
-0.00057661
-0.00053949
-0.00050202
-0.00046424
-0.00042618
-0.00038787
-0.00034933
-0.00031055
-0.00027153
-0.00023227
-0.00019278
-0.00015307
-0.00011316
-0.00007307
-0.00003282
0.00000755
0.00004801
0.00008856
0.00012919
0.00016989
0.00021066
0.00025150
0.00029237
0.00033325
0.00037408
0.00041482
0.00045546
0.00049600
0.00053644
0.00057682
0.00061716
0.00065746
0.00069772
0.00073793
0.00077808
0.00081816
0.00085814
0.00089803
0.00093780
0.00097747
0.00101701
0.00105644
0.00109577
0.00113502
0.00117422
0.00121336
0.00125244
0.00129148
0.00133049
0.00136948
0.00140845
0.00144739
0.00148628
0.00152512
0.00156385
0.00160245
0.00164085
0.00167901
0.00171688
0.00175444
0.00179167
0.00182856
0.00186511
0.00190130
0.00193715
0.00197267
0.00200785
0.00204268
0.00207716
0.00211132
0.00214516
0.00217871
0.00221196
0.00224493
0.00227761
0.00230999
0.00234205
0.00237376
0.00240508
0.00243601
0.00246653
0.00249665
0.00252636
0.00255567
0.00258453
0.00261291
0.00264079
0.00266819
0.00269517
0.00272177
0.00274805
0.00277399
0.00279957
0.00282478
0.00284959
0.00287401
0.00289805
0.00292172
0.00294503
0.00296794
0.00299045
0.00301254
0.00303422
0.00305550
0.00307639
0.00309688
0.00311697
0.00313663
0.00315586
0.00317464
0.00319298
0.00321087
0.00322830
0.00324527
0.00326180
0.00327789
0.00329358
0.00330887
0.00332378
0.00333832
0.00335254
0.00336644
0.00338002
0.00339329
0.00340626
0.00341894
0.00343135
0.00344350
0.00345541
0.00346709
0.00347856
0.00348979
0.00350078
0.00351149
0.00352191
0.00353200
0.00354177
0.00355121
0.00356035
0.00356920
0.00357775
0.00358599
0.00359392
0.00360151
0.00360877
0.00361567
0.00362223
0.00362845
0.00363434
0.00363991
0.00364519
0.00365018
0.00365488
0.00365930
0.00366343
0.00366727
0.00367079
0.00367399
0.00367686
0.00367938
0.00368151
0.00368325
0.00368456
0.00368541
0.00368574
0.00368554
0.00368480
0.00368352
0.00368174
0.00367946
0.00367672
0.00367355
0.00366999
0.00366606
0.00366177
0.00365711
0.00365206
0.00364657
0.00364062
0.00363422
0.00362737
0.00362006
0.00361230
0.00360407
0.00359541
0.00358633
0.00357685
0.00356698
0.00355671
0.00354606
0.00353503
0.00352362
0.00351183
0.00349968
0.00348718
0.00347435
0.00346120
0.00344773
0.00343397
0.00341992
0.00340560
0.00339100
0.00337613
0.00336103
0.00334569
0.00333014
0.00331438
0.00329837
0.00328210
0.00326555
0.00324873
0.00323167
0.00321437
0.00319687
0.00317917
0.00316128
0.00314321
0.00312493
0.00310647
0.00308780
0.00306892
0.00304981
0.00303044
0.00301078
0.00299083
0.00297059
0.00295012
0.00292946
0.00290865
0.00288772
0.00286666
0.00284544
0.00282403
0.00280241
0.00278055
0.00275844
0.00273605
0.00271339
0.00269045
0.00266727
0.00264387
0.00262028
0.00259653
0.00257262
0.00254858
0.00252440
0.00250005
0.00247554
0.00245087
0.00242606
0.00240110
0.00237601
0.00235078
0.00232543
0.00229996
0.00227437
0.00224868
0.00222288
0.00219699
0.00217102
0.00214498
0.00211889
0.00209274
0.00206654
0.00204032
0.00201408
0.00198784
0.00196161
0.00193540
0.00190920
0.00188301
0.00185683
0.00183065
0.00180445
0.00177822
0.00175198
0.00172573
0.00169950
0.00167329
0.00164711
0.00162100
0.00159500
0.00156915
0.00154351
0.00151809
0.00149293
0.00146804
0.00144347
0.00141922
0.00139530
0.00137171
0.00134843
0.00132547
0.00130282
0.00128050
0.00125850
0.00123681
0.00121541
0.00119430
0.00117348
0.00115293
0.00113267
0.00111265
0.00109284
0.00107322
0.00105376
0.00103447
0.00101534
0.00099639
0.00097762
0.00095901
0.00094051
0.00092205
0.00090360
0.00088511
0.00086656
0.00084794
0.00082922
0.00081042
0.00079152
0.00077250
0.00075336
0.00073410
0.00071471
