-0.57757459
-1.15549453
-1.15586664
-1.15560225
-1.15470690
-1.15319194
-1.15107112
-1.14836018
-1.14507732
-1.14124297
-1.13687857
-1.13200479
-1.12663989
-1.12079902
-1.11449479
-1.10773866
-1.10054245
-1.09291958
-1.08488585
-1.07645931
-1.06765936
-1.05850502
-1.04901316
-1.03919758
-1.02906926
-1.01863761
-1.00791209
-0.99690349
-0.98562477
-0.97409126
-0.96231987
-0.95032759
-0.93812967
-0.92573842
-0.91316316
-0.90041131
-0.88748991
-0.87440711
-0.86117311
-0.84780053
-0.83430384
-0.82069787
-0.80699606
-0.79320904
-0.77934443
-0.76540771
-0.75140371
-0.73733799
-0.72321800
-0.70905353
-0.69485641
-0.68063935
-0.66641415
-0.65219014
-0.63797353
-0.62376804
-0.60957636
-0.59540172
-0.58124910
-0.56712581
-0.55304139
-0.53900644
-0.52503092
-0.51112243
-0.49728548
-0.48352205
-0.46983292
-0.45621929
-0.44268399
-0.42923220
-0.41587141
-0.40261038
-0.38945741
-0.37641864
-0.36349719
-0.35069354
-0.33800687
-0.32543658
-0.31298357
-0.30065101
-0.28844442
-0.27637079
-0.26443695
-0.25264776
-0.24100511
-0.22950822
-0.21815486
-0.20694294
-0.19587185
-0.18494329
-0.17416136
-0.16353171
-0.15305987
-0.14274942
-0.13260100
-0.12261257
-0.11278073
-0.10310234
-0.09357581
-0.08420192
-0.07498386
-0.06592625
-0.05703351
-0.04830809
-0.03974950
-0.03135466
-0.02311923
-0.01503918
-0.00711205
0.00066228
0.00828152
0.01574186
0.02303958
0.03017285
0.03714266
0.04395259
0.05060759
0.05711241
0.06347032
0.06968233
0.07574707
0.08166141
0.08742207
0.09302735
0.09847833
0.10377880
0.10893414
0.11394966
0.11882934
0.12357488
0.12818550
0.13265863
0.13699146
0.14118275
0.14523403
0.14914947
0.15293476
0.15659547
0.16013564
0.16355692
0.16685851
0.17003798
0.17309295
0.17602284
0.17882988
0.18151880
0.18409554
0.18656571
0.18893330
0.19119991
0.19336467
0.19542517
0.19737909
0.19922600
0.20096826
0.20261072
0.20415930
0.20561944
0.20699479
0.20828651
0.20949336
0.21061286
0.21164299
0.21258392
0.21343871
0.21421258
0.21491152
0.21554064
0.21610305
0.21659936
0.21702793
0.21738613
0.21767211
0.21788635
0.21803211
0.21811466
0.21813980
0.21811231
0.21803491
0.21790775
0.21772885
0.21749542
0.21720570
0.21686038
0.21646291
0.21601852
0.21553279
0.21501016
0.21445296
0.21386096
0.21323191
0.21256291
0.21185229
0.21110094
0.21031243
0.20949192
0.20864468
0.20777464
0.20688347
0.20597034
0.20503256
0.20406704
0.20307215
0.20204895
0.20100112
0.19993379
0.19885195
0.19775909
0.19665636
0.19554239
0.19441408
0.19326828
0.19210353
0.19092112
0.18972481
0.18851950
0.18730968
0.18609809
0.18488498
0.18366820
0.18244432
0.18121038
0.17996558
0.17871189
0.17745346
0.17619511
0.17494091
0.17369296
0.17245090
0.17121211
0.16997297
0.16873067
0.16748471
0.16623732
0.16499264
0.16375522
0.16252853
0.16131398
0.16011048
0.15891489
0.15772333
0.15653297
0.15534348
0.15415720
0.15297822
0.15181088
0.15065835
0.14952167
0.14839944
0.14728825
0.14618418
0.14508456
0.14398931
0.14290098
0.14182366
0.14076142
0.13971695
0.13869063
0.13768037
0.13668238
0.13569279
0.13470946
0.13373301
0.13276643
0.13181385
0.13087888
0.12996334
0.12906658
0.12818566
0.12731643
0.12645540
0.12560131
0.12475567
0.12392203
0.12310451
0.12230630
0.12152853
0.12076977
0.12002651
0.11929447
0.11857046
0.11785380
0.11714647
0.11645218
0.11577476
0.11511670
0.11447818
0.11385688
0.11324882
0.11264990
0.11205777
0.11147277
0.11089769
0.11033641
0.10979229
0.10926688
0.10875932
0.10826643
0.10778392
0.10730818
0.10683787
0.10637441
0.10592118
0.10548198
0.10505960
0.10465472
0.10426555
0.10388837
0.10351897
0.10315442
0.10279434
0.10244094
0.10209786
0.10176862
0.10145522
0.10115726
0.10087196
0.10059509
0.10032273
0.10005301
0.09978691
0.09952756
0.09927879
0.09904351
0.09882261
0.09861445
0.09841534
0.09822103
0.09802853
0.09783748
0.09765011
0.09747010
0.09730095
0.09714454
0.09700032
0.09686542
0.09673566
0.09660731
0.09647883
0.09635142
0.09622834
0.09611334
0.09600909
0.09591607
0.09583228
0.09575387
0.09567672
0.09559836
0.09551904
0.09544144
0.09536927
0.09530567
0.09525190
0.09520674
0.09516683
0.09512794
0.09508687
0.09504294
0.09499815
0.09495607
0.09492025
0.09489270
0.09487312
0.09485879
0.09484558
0.09482972
0.09480950
0.09478601
0.09476248
0.09474274
0.09472966
0.09472395
0.09472385
0.09472566
0.09472536
0.09472053
0.09471144
0.09470077
0.09469223
0.09468893
0.09469207
0.09470036
0.09471039
0.09471800
0.09472021
0.09471663
0.09470948
0.09470246
0.09469898
0.09470077
0.09470712
0.09471504
0.09472051
0.09472031
0.09471365
0.09470246
0.09469033
0.09468088
0.09467625
0.09467618
0.09467805
0.09467786
0.09467207
0.09465927
0.09464080
0.09461999
0.09460062
0.09458535
0.09457469
0.09456665
0.09455748
0.09454326
0.09452175
0.09449338
0.09446099
0.09442836
0.09439867
0.09437324
0.09435095
0.09432852
0.09430191
0.09426823
0.09422713
0.09418087
0.09413317
0.09408752
0.09404577
0.09400738
0.09396947
0.09392805
0.09387992
0.09382422
0.09376281
0.09369928
0.09363726
0.09357902
0.09352451
0.09347124
0.09341534
0.09335330
0.09328377
0.09320812
0.09312968
0.09305218
0.09297818
0.09290811
0.09283995
0.09276997
0.09269437
0.09261113
0.09252094
0.09242682
0.09233256
0.09224116
0.09215358
0.09206834
0.09198200
0.09189065
0.09179188
0.09168593
0.09157554
0.09146451
0.09135609
0.09125164
0.09115004
0.09104802
0.09094160
0.09082799
0.09070701
0.09058102
0.09045378
0.09032878
0.09020785
0.09009044
0.08997372
0.08985376
0.08972741
0.08959384
0.08945491
0.08931419
0.08917532
0.08904053
0.08890980
0.08878068
0.08864932
0.08851221
0.08836791
0.08821778
0.08806513
0.08791373
0.08776618
0.08762288
0.08748176
0.08733909
0.08719124
0.08703643
0.08687560
0.08671186
0.08654901
0.08638995
0.08623553
0.08608413
0.08593225
0.08577610
0.08561340
0.08544455
0.08527231
0.08510044
0.08493211
0.08476871
0.08460919
0.08445039
0.08428831
0.08412002
0.08394503
0.08376549
0.08358506
0.08340731
0.08323424
0.08306544
0.08289816
0.08272849
0.08255328
0.08237170
0.08218561
0.08199859
0.08181429
0.08163503
0.08146081
0.08128928
0.08111659
0.08093921
0.08075560
0.08056699
0.08037663
0.08018829
0.08000470
0.07982649
0.07965186
0.07947720
0.07929867
0.07911406
0.07892375
0.07873052
0.07853816
0.07834989
0.07816718
0.07798904
0.07781236
0.07763316
0.07744849
0.07725782
0.07706323
0.07686833
0.07667660
0.07649001
0.07630823
0.07612862
0.07594733
0.07576116
0.07556920
0.07537326
0.07517682
0.07498350
0.07479553
0.07461287
0.07443308
0.07425234
0.07406720
0.07387634
0.07368112
0.07348487
0.07329128
0.07310290
0.07292007
0.07274073
0.07256116
0.07237776
0.07218880
0.07199523
0.07180017
0.07160735
0.07141954
0.07123748
0.07105949
0.07088206
0.07070138
0.07051508
0.07032342
0.07012903
0.06993565
0.06974651
0.06956310
0.06938444
0.06920745
0.06902821
0.06884386
0.06865398
0.06846075
0.06826778
0.06807852
0.06789483
0.06771624
0.06754003
0.06736231
0.06717982
0.06699155
0.06679915
0.06660603
0.06641580
0.06623077
0.06605106
0.06587444
0.06569715
0.06551564
0.06532826
0.06513607
0.06494216
0.06475017
0.06456281
0.06438073
0.06420216
0.06402354
0.06384116
0.06365299
0.06345966
0.06326407
0.06306995
0.06288027
0.06269607
0.06251598
0.06233670
0.06215440
0.06196665
0.06177361
0.06157784
0.06138302
0.06119234
0.06100718
0.06082651
0.06064720
0.06046528
0.06027785
0.06008447
0.05988724
0.05968973
0.05949541
0.05930628
0.05912208
0.05894024
0.05875695
0.05856896
0.05837521
0.05817730
0.05797863
0.05778289
0.05759248
0.05740766
0.05722625
0.05704455
0.05685900
0.05666801
0.05647264
0.05627605
0.05608197
0.05589313
0.05571020
0.05553137
0.05535314
0.05517183
0.05498544
0.05479461
0.05460222
0.05441197
0.05422684
0.05404791
0.05387385
0.05370136
0.05352660
0.05334702
0.05316262
0.05297587
0.05279041
0.05260946
0.05243453
0.05226472
0.05209700
0.05192752
0.05175339
0.05157418
0.05139201
0.05121045
0.05103284
0.05086092
0.05069409
0.05052954
0.05036343
0.05019276
0.05001692
0.04983791
0.04965926
0.04948445
0.04931551
0.04915221
0.04899204
0.04883120
0.04866644
0.04849669
0.04832358
0.04815045
0.04798082
0.04781685
0.04765852
0.04750344
0.04734783
0.04718825
0.04702326
0.04685411
0.04668395
0.04651638
0.04635388
0.04619678
0.04604305
0.04588906
0.04573132
0.04556822
0.04540084
0.04523228
0.04506618
0.04490511
0.04474954
0.04459752
0.04444548
0.04428985
0.04412890
0.04396354
0.04379682
0.04363244
0.04347314
0.04331962
0.04317013
0.04302115
0.04286893
0.04271134
0.04254891
0.04238440
0.04222146
0.04206298
0.04190992
0.04176082
0.04161235
0.04146077
0.04130383
0.04114185
0.04097751
0.04081444
0.04065569
0.04050242
0.04035336
0.04020527
0.04005439
0.03989833
0.03973730
0.03957390
0.03941179
0.03925404
0.03910189
0.03895414
0.03880762
0.03865858
0.03850461
0.03834583
0.03818479
0.03802520
0.03787026
0.03772142
0.03757772
0.03743610
0.03729271
0.03714475
0.03699190
0.03683628
0.03668144
0.03653064
0.03638556
0.03624553
0.03610768
0.03596820
0.03582420
0.03567523
0.03552340
0.03537227
0.03522521
0.03508398
0.03494801
0.03481451
0.03467966
0.03454043
0.03439614
0.03424868
0.03410152
0.03395813
0.03382051
0.03368841
0.03355927
0.03342930
0.03329526
0.03315608
0.03301331
0.03287026
0.03273046
0.03259616
0.03246743
0.03234198
0.03221603
0.03208611
0.03195069
0.03181088
0.03166976
0.03153090
0.03139678
0.03126781
0.03114206
0.03101596
0.03088590
0.03075003
0.03060916
0.03046627
0.03032497
0.03018795
0.03005580
0.02992673
0.02979724
0.02966376
0.02952448
0.02938025
0.02923403
0.02908940
0.02894902
0.02881347
0.02868094
0.02854791
0.02841082
0.02826781
0.02811967
0.02796931
0.02782037
0.02767567
0.02753608
0.02740009
0.02726438
0.02712526
0.02698058
0.02683086
0.02667887
0.02652824
0.02638176
0.02624020
0.02610190
0.02596340
0.02582109
0.02567308
0.02552012
0.02536514
0.02521175
0.02506268
0.02491860
0.02477777
0.02463674
0.02449194
0.02434157
0.02418649
0.02402970
0.02387487
0.02372475
0.02358012
0.02343934
0.02329898
0.02315542
0.02300665
0.02285334
0.02269831
0.02254518
0.02239677
0.02225395
0.02211515
0.02197697
0.02183580
0.02168966
0.02153925
0.02138747
0.02123791
0.02109327
0.02095417
0.02081877
0.02068359
0.02054511
0.02040166
0.02025423
0.02010587
0.01996021
0.01981985
0.01968529
0.01955465
0.01942438
0.01929097
0.01915271
0.01901052
0.01886739
0.01872693
0.01859175
0.01846236
0.01833689
0.01821179
0.01808354
0.01795043
0.01781341
0.01767549
0.01754020
0.01741006
0.01728544
0.01716439
0.01704336
0.01691892
0.01678949
0.01665617
0.01652203
0.01639068
0.01626464
0.01614435
0.01602787
0.01591168
0.01579234
0.01566833
0.01554077
0.01541277
0.01528787
0.01516850
0.01505494
0.01494511
0.01483540
0.01472238
0.01460458
0.01448319
0.01436136
0.01424265
0.01412949
0.01402223
0.01391883
0.01381568
0.01370928
0.01359803
0.01348299
0.01336722
0.01325416
0.01314613
0.01304326
0.01294337
0.01284288
0.01273851
0.01262903
0.01251583
0.01240215
0.01229151
0.01218621
0.01208632
0.01198961
0.01189249
0.01179179
0.01168643
0.01157796
0.01146965
0.01136497
0.01126610
0.01117301
0.01108338
0.01099352
0.01090020
0.01080227
0.01070120
0.01060022
0.01050278
0.01041103
0.01032493
0.01024206
0.01015864
0.01007132
0.00997888
0.00988279
0.00978629
0.00969278
0.00960427
0.00952053
0.00943905
0.00935608
0.00926848
0.00917530
0.00907822
0.00898062
0.00888590
0.00879606
0.00871084
0.00862771
0.00854303
0.00845379
0.00835924
0.00826117
0.00816296
0.00806802
0.00797833
0.00789365
0.00781148
0.00772812
0.00764046
0.00754758
0.00745119
0.00735462
0.00726126
0.00717307
0.00708972
0.00700867
0.00692627
0.00683967
0.00674833
0.00665423
0.00656082
0.00647133
0.00638741
0.00630833
0.00623124
0.00615240
0.00606911
0.00598111
0.00589062
0.00580115
0.00571582
0.00563603
0.00556081
0.00548712
0.00541124
0.00533062
0.00524522
0.00515743
0.00507077
0.00498826
0.00491114
0.00483830
0.00476662
0.00469240
0.00461325
0.00452929
0.00444299
0.00435789
0.00427699
0.00420152
0.00413032
0.00406027
0.00398770
0.00391024
0.00382808
0.00374376
0.00366085
0.00358229
0.00350913
0.00344006
0.00337186
0.00330091
0.00322510
0.00314489
0.00306300
0.00298297
0.00290762
0.00283784
0.00277214
0.00270718
0.00263935
0.00256662
0.00248955
0.00241090
0.00233423
0.00226233
0.00219600
0.00213366
0.00207192
0.00200713
0.00193721
0.00186270
0.00178634
0.00171172
0.00164168
0.00157706
0.00151636
0.00145626
0.00139321
0.00132530
0.00125321
0.00117979
0.00110859
0.00104231
0.00098162
0.00092486
0.00086862
0.00080935
0.00074511
0.00067658
0.00060657
0.00053863
0.00047546
0.00041777
0.00036386
0.00031032
0.00025364
0.00019206
0.00012649
0.00005991
-0.00000421
-0.00006345
-0.00011755
-0.00016856
-0.00022001
-0.00027524
-0.00033559
-0.00039975
-0.00046457
-0.00052665
-0.00058379
-0.00063604
-0.00068570
-0.00073639
-0.00079123
-0.00085122
-0.00091475
-0.00097853
-0.00103914
-0.00109452
-0.00114483
-0.00119245
-0.00124103
-0.00129374
-0.00135169
-0.00141340
-0.00147563
-0.00153492
-0.00158905
-0.00163792
-0.00168375
-0.00173018
-0.00178061
-0.00183649
-0.00189664
-0.00195793
-0.00201682
-0.00207090
-0.00211984
-0.00216566
-0.00221188
-0.00226186
-0.00231706
-0.00237633
-0.00243655
-0.00249417
-0.00254678
-0.00259410
-0.00263817
-0.00268256
-0.00273059
-0.00278358
-0.00284024
-0.00289738
-0.00295157
-0.00300054
-0.00304422
-0.00308477
-0.00312582
-0.00317064
-0.00322054
-0.00327417
-0.00332833
-0.00337951
-0.00342543
-0.00346592
-0.00350312
-0.00354065
-0.00358185
-0.00362807
-0.00367802
-0.00372857
-0.00377622
-0.00381867
-0.00385572
-0.00388952
-0.00392362
-0.00396128
-0.00400372
-0.00404955
-0.00409559
-0.00413842
-0.00417594
-0.00420823
-0.00423765
-0.00426784
-0.00430186
-0.00434063
-0.00438247
-0.00442407
-0.00446207
-0.00449447
-0.00452150
-0.00454562
-0.00457053
-0.00459940
-0.00463324
-0.00467048
-0.00470787
-0.00474206
-0.00477097
-0.00479472
-0.00481570
-0.00483758
-0.00486351
-0.00489448
-0.00492889
-0.00496348
-0.00499495
-0.00502142
-0.00504327
-0.00506308
-0.00508455
-0.00511067
-0.00514218
-0.00517729
-0.00521267
-0.00524501
-0.00527248
-0.00529553
-0.00531678
-0.00533988
-0.00536773
-0.00540098
-0.00543773
-0.00547467
-0.00550861
-0.00553790
-0.00556320
-0.00558729
-0.00561386
-0.00564562
-0.00568289
-0.00572350
-0.00576402
-0.00580136
-0.00583407
-0.00586303
-0.00589115
-0.00592212
-0.00595845
-0.00600014
-0.00604483
-0.00608905
-0.00612987
-0.00616614
-0.00619909
-0.00623185
-0.00626802
-0.00630979
-0.00635680
-0.00640640
-0.00645503
-0.00649982
-0.00653974
-0.00657611
-0.00661213
-0.00665135
-0.00669588
-0.00674531
-0.00679695
-0.00684718
-0.00689302
-0.00693336
-0.00696941
-0.00700435
-0.00704182
-0.00708415
-0.00713111
-0.00718020
-0.00722788
-0.00727124
-0.00730919
-0.00734300
-0.00737586
-0.00741140
-0.00745190
-0.00749708
-0.00754436
-0.00759024
-0.00763189
-0.00766831
-0.00770084
-0.00773265
-0.00776732
-0.00780704
-0.00785146
-0.00789799
-0.00794310
-0.00798394
-0.00801944
-0.00805084
-0.00808129
-0.00811444
-0.00815268
-0.00819588
-0.00824160
-0.00828636
-0.00832721
-0.00836296
-0.00839475
-0.00842570
-0.00845948
-0.00849846
-0.00854253
-0.00858924
-0.00863510
-0.00867713
-0.00871413
-0.00874723
-0.00877948
-0.00881449
-0.00885451
-0.00889930
-0.00894633
-0.00899210
-0.00903366
-0.00906984
-0.00910180
-0.00913265
-0.00916595
-0.00920393
-0.00924632
-0.00929060
-0.00933330
-0.00937159
-0.00940448
-0.00943330
-0.00946121
-0.00949181
-0.00952734
-0.00956751
-0.00960978
-0.00965066
-0.00968723
-0.00971841
-0.00974545
-0.00977145
-0.00980004
-0.00983350
-0.00987162
-0.00991187
-0.00995070
-0.00998517
-0.01001413
-0.01003880
-0.01006233
-0.01008830
-0.01011896
-0.01015402
-0.01019092
-0.01022613
-0.01025677
-0.01028176
-0.01030236
-0.01032170
-0.01034334
-0.01036946
-0.01039968
-0.01043139
-0.01046108
-0.01048594
-0.01050494
-0.01051939
-0.01053250
-0.01054793
-0.01056801
-0.01059255
-0.01061903
-0.01064388
-0.01066405
-0.01067827
-0.01068764
-0.01069523
-0.01070467
-0.01071830
-0.01073600
-0.01075534
-0.01077286
-0.01078558
-0.01079234
-0.01079426
-0.01079440
-0.01079635
-0.01080241
-0.01081241
-0.01082389
-0.01083336
-0.01083786
-0.01083621
-0.01082951
-0.01082081
-0.01081377
-0.01081088
-0.01081219
-0.01081541
-0.01081707
-0.01081410
-0.01080510
-0.01079099
-0.01077474
-0.01076008
-0.01074973
-0.01074401
-0.01074081
-0.01073674
-0.01072876
-0.01071545
-0.01069763
-0.01067820
-0.01066084
-0.01064823
-0.01064071
-0.01063617
-0.01063116
-0.01062254
-0.01060873
-0.01059046
-0.01057053
-0.01055255
-0.01053911
-0.01053043
-0.01052427
-0.01051718
-0.01050602
-0.01048934
-0.01046795
-0.01044476
-0.01042347
-0.01040679
-0.01039502
-0.01038604
-0.01037635
-0.01036272
-0.01034346
-0.01031915
-0.01029248
-0.01026713
-0.01024595
-0.01022953
-0.01021595
-0.01020184
-0.01018393
-0.01016045
-0.01013184
-0.01010071
-0.01007072
-0.01004480
-0.01002365
-0.01000542
-0.00998674
-0.00996437
-0.00993648
-0.00990349
-0.00986795
-0.00983353
-0.00980328
-0.00977810
-0.00975642
-0.00973500
-0.00971052
-0.00968096
-0.00964648
-0.00960948
-0.00957359
-0.00954191
-0.00951542
-0.00949254
-0.00947007
-0.00944471
-0.00941444
-0.00937943
-0.00934201
-0.00930580
-0.00927399
-0.00924777
-0.00922573
-0.00920473
-0.00918140
-0.00915366
-0.00912155
-0.00908738
-0.00905474
-0.00902680
-0.00900467
-0.00898688
-0.00897020
-0.00895119
-0.00892766
-0.00889952
-0.00886896
-0.00883956
-0.00881459
-0.00879537
-0.00878061
-0.00876720
-0.00875165
-0.00873162
-0.00870681
-0.00867919
-0.00865227
-0.00862947
-0.00861235
-0.00859991
-0.00858914
-0.00857656
-0.00855969
-0.00853810
-0.00851364
-0.00848974
-0.00846973
-0.00845515
-0.00844496
-0.00843620
-0.00842542
-0.00841017
-0.00839002
-0.00836682
-0.00834404
-0.00832514
-0.00831186
-0.00830336
-0.00829673
-0.00828848
-0.00827605
-0.00825887
-0.00823867
-0.00821885
-0.00820298
-0.00819302
-0.00818840
-0.00818637
-0.00818343
-0.00817680
-0.00816549
-0.00815086
-0.00813606
-0.00812464
-0.00811870
-0.00811785
-0.00811947
-0.00812008
-0.00811689
-0.00810896
-0.00809768
-0.00808624
-0.00807817
-0.00807558
-0.00807810
-0.00808309
-0.00808702
-0.00808697
-0.00808177
-0.00807257
-0.00806245
-0.00805502
-0.00805262
-0.00805519
-0.00806030
-0.00806450
-0.00806474
-0.00805964
-0.00805016
-0.00803923
-0.00803055
-0.00802677
-0.00802821
-0.00803279
-0.00803712
-0.00803800
-0.00803377
-0.00802501
-0.00801440
-0.00800569
-0.00800181
-0.00800348
-0.00800891
-0.00801477
-0.00801775
-0.00801593
-0.00800955
-0.00800106
-0.00799408
-0.00799179
-0.00799523
-0.00800292
-0.00801161
-0.00801792
-0.00801965
-0.00801674
-0.00801134
-0.00800700
-0.00800697
-0.00801262
-0.00802277
-0.00803438
-0.00804403
-0.00804936
-0.00804998
-0.00804777
-0.00804618
-0.00804868
-0.00805709
-0.00807066
-0.00808652
-0.00810113
-0.00811171
-0.00811737
-0.00811950
-0.00812129
-0.00812638
-0.00813709
-0.00815331
-0.00817264
-0.00819160
-0.00820712
-0.00821774
-0.00822419
-0.00822926
-0.00823661
-0.00824902
-0.00826696
-0.00828844
-0.00831005
-0.00832846
-0.00834168
-0.00834990
-0.00835545
-0.00836196
-0.00837264
-0.00838871
-0.00840890
-0.00843014
-0.00844894
-0.00846285
-0.00847131
-0.00847607
-0.00848049
-0.00848811
-0.00850095
-0.00851853
-0.00853817
-0.00855634
-0.00857014
-0.00857846
-0.00858249
-0.00858528
-0.00859049
-0.00860051
-0.00861536
-0.00863271
-0.00864911
-0.00866147
-0.00866830
-0.00867038
-0.00867052
-0.00867244
-0.00867900
-0.00869083
-0.00870607
-0.00872142
-0.00873353
-0.00874039
-0.00874214
-0.00874111
-0.00874094
-0.00874486
-0.00875412
-0.00876741
-0.00878163
-0.00879337
-0.00880026
-0.00880198
-0.00880044
-0.00879907
-0.00880128
-0.00880873
-0.00882053
-0.00883379
-0.00884501
-0.00885151
-0.00885254
-0.00884959
-0.00884589
-0.00884504
-0.00884926
-0.00885833
-0.00886975
-0.00888000
-0.00888599
-0.00888623
-0.00888145
-0.00887438
-0.00886872
-0.00886740
-0.00887116
-0.00887831
-0.00888557
-0.00888959
-0.00888823
-0.00888145
-0.00887139
-0.00886161
-0.00885543
-0.00885429
-0.00885703
-0.00886062
-0.00886160
-0.00885750
-0.00884781
-0.00883430
-0.00882033
-0.00880939
-0.00880336
-0.00880156
-0.00880126
-0.00879892
-0.00879173
-0.00877870
-0.00876111
-0.00874213
-0.00872543
-0.00871348
-0.00870635
-0.00870177
-0.00869630
-0.00868680
-0.00867166
-0.00865150
-0.00862901
-0.00860793
-0.00859132
-0.00858013
-0.00857278
-0.00856609
-0.00855667
-0.00854235
-0.00852304
-0.00850091
-0.00847954
-0.00846231
-0.00845078
-0.00844395
-0.00843889
-0.00843206
-0.00842081
-0.00840439
-0.00838429
-0.00836378
-0.00834641
-0.00833426
-0.00832694
-0.00832188
-0.00831559
-0.00830513
-0.00828930
-0.00826918
-0.00824777
-0.00822875
-0.00821472
-0.00820594
-0.00820027
-0.00819432
-0.00818492
-0.00817035
-0.00815105
-0.00812961
-0.00810968
-0.00809435
-0.00808460
-0.00807893
-0.00807416
-0.00806690
-0.00805490
-0.00803791
-0.00801791
-0.00799838
-0.00798272
-0.00797260
-0.00796714
-0.00796349
-0.00795814
-0.00794843
-0.00793354
-0.00791495
-0.00789587
-0.00787991
-0.00786929
-0.00786378
-0.00786087
-0.00785701
-0.00784907
-0.00783551
-0.00781695
-0.00779607
-0.00777649
-0.00776117
-0.00775095
-0.00774419
-0.00773765
-0.00772797
-0.00771295
-0.00769244
-0.00766851
-0.00764469
-0.00762444
-0.00760953
-0.00759922
-0.00759071
-0.00758050
-0.00756579
-0.00754557
-0.00752106
-0.00749537
-0.00747209
-0.00745365
-0.00744006
-0.00742901
-0.00741703
-0.00740099
-0.00737929
-0.00735253
-0.00732341
-0.00729563
-0.00727220
-0.00725396
-0.00723928
-0.00722491
-0.00720743
-0.00718459
-0.00715615
-0.00712409
-0.00709186
-0.00706299
-0.00703939
-0.00702050
-0.00700368
-0.00698544
-0.00696293
-0.00693497
-0.00690255
-0.00686862
-0.00683690
-0.00681015
-0.00678887
-0.00677114
-0.00675361
-0.00673302
-0.00670743
-0.00667705
-0.00664419
-0.00661244
-0.00658501
-0.00656314
-0.00654556
-0.00652917
-0.00651048
-0.00648695
-0.00645799
-0.00642526
-0.00639208
-0.00636205
-0.00633728
-0.00631744
-0.00630003
-0.00628156
-0.00625908
-0.00623129
-0.00619916
-0.00616560
-0.00613433
-0.00610814
-0.00608755
-0.00607064
-0.00605413
-0.00603475
-0.00601060
-0.00598189
-0.00595097
-0.00592144
-0.00589648
-0.00587728
-0.00586251
-0.00584902
-0.00583335
-0.00581302
-0.00578755
-0.00575862
-0.00572959
-0.00570397
-0.00568381
-0.00566867
-0.00565595
-0.00564215
-0.00562432
-0.00560120
-0.00557380
-0.00554505
-0.00551867
-0.00549737
-0.00548161
-0.00546947
-0.00545756
-0.00544254
-0.00542232
-0.00539691
-0.00536848
-0.00534060
-0.00531662
-0.00529810
-0.00528409
-0.00527171
-0.00525746
-0.00523864
-0.00521441
-0.00518615
-0.00515704
-0.00513069
-0.00510937
-0.00509292
-0.00507891
-0.00506385
-0.00504469
-0.00501998
-0.00499049
-0.00495905
-0.00492934
-0.00490425
-0.00488446
-0.00486822
-0.00485225
-0.00483322
-0.00480910
-0.00477988
-0.00474779
-0.00471640
-0.00468911
-0.00466753
-0.00465070
-0.00463572
-0.00461908
-0.00459812
-0.00457202
-0.00454221
-0.00451185
-0.00448452
-0.00446244
-0.00444539
-0.00443094
-0.00441563
-0.00439649
-0.00437218
-0.00434356
-0.00431348
-0.00428554
-0.00426247
-0.00424472
-0.00423031
-0.00421590
-0.00419814
-0.00417506
-0.00414679
-0.00411562
-0.00408512
-0.00405850
-0.00403703
-0.00401955
-0.00400306
-0.00398412
-0.00396023
-0.00393074
-0.00389718
-0.00386282
-0.00383123
-0.00380464
-0.00378281
-0.00376327
-0.00374255
-0.00371762
-0.00368710
-0.00365187
-0.00361479
-0.00357957
-0.00354908
-0.00352390
-0.00350219
-0.00348064
-0.00345591
-0.00342597
-0.00339088
-0.00335291
-0.00331558
-0.00328215
-0.00325404
-0.00323014
-0.00320751
-0.00318270
-0.00315321
-0.00311842
-0.00307995
-0.00304111
-0.00300547
-0.00297513
-0.00294976
-0.00292686
-0.00290303
-0.00287546
-0.00284307
-0.00280695
-0.00277010
-0.00273612
-0.00270747
-0.00268420
-0.00266408
-0.00264368
-0.00261997
-0.00259145
-0.00255885
-0.00252491
-0.00249328
-0.00246675
-0.00244591
-0.00242891
-0.00241249
-0.00239342
-0.00236983
-0.00234198
-0.00231224
-0.00228421
-0.00226101
-0.00224381
-0.00223126
-0.00222026
-0.00220738
-0.00219023
-0.00216841
-0.00214374
-0.00211961
-0.00209951
-0.00208535
-0.00207656
-0.00207043
-0.00206344
-0.00205267
-0.00203692
-0.00201723
-0.00199655
-0.00197847
-0.00196552
-0.00195790
-0.00195344
-0.00194873
-0.00194056
-0.00192711
-0.00190872
-0.00188782
-0.00186799
-0.00185233
-0.00184194
-0.00183538
-0.00182957
-0.00182116
-0.00180793
-0.00178970
-0.00176849
-0.00174781
-0.00173115
-0.00172033
-0.00171471
-0.00171156
-0.00170741
-0.00169941
-0.00168643
-0.00166957
-0.00165181
-0.00163682
-0.00162717
-0.00162311
-0.00162254
-0.00162203
-0.00161838
-0.00160979
-0.00159663
-0.00158132
-0.00156747
-0.00155824
-0.00155479
-0.00155579
-0.00155816
-0.00155840
-0.00155401
-0.00154436
-0.00153101
-0.00151722
-0.00150659
-0.00150141
-0.00150152
-0.00150456
-0.00150709
-0.00150606
-0.00149999
-0.00148952
-0.00147734
-0.00146710
-0.00146176
-0.00146217
-0.00146671
-0.00147217
-0.00147514
-0.00147330
-0.00146630
-0.00145599
-0.00144579
-0.00143914
-0.00143790
-0.00144138
-0.00144687
-0.00145088
-0.00145062
-0.00144504
-0.00143535
-0.00142456
-0.00141630
-0.00141300
-0.00141481
-0.00141955
-0.00142382
-0.00142446
-0.00141974
-0.00141013
-0.00139818
-0.00138755
-0.00138141
-0.00138092
-0.00138475
-0.00138983
-0.00139270
-0.00139097
-0.00138414
-0.00137392
-0.00136368
-0.00135700
-0.00135612
-0.00136085
-0.00136875
-0.00137636
-0.00138058
-0.00137989
-0.00137490
-0.00136827
-0.00136361
-0.00136387
-0.00136985
-0.00137990
-0.00139080
-0.00139911
-0.00140253
-0.00140069
-0.00139544
-0.00139017
-0.00138845
-0.00139235
-0.00140157
-0.00141363
-0.00142510
-0.00143295
-0.00143569
-0.00143396
-0.00143042
-0.00142876
-0.00143210
-0.00144150
-0.00145556
-0.00147114
-0.00148480
-0.00149411
-0.00149855
-0.00149979
-0.00150113
-0.00150608
-0.00151669
-0.00153257
-0.00155114
-0.00156893
-0.00158287
-0.00159151
-0.00159552
-0.00159758
-0.00160136
-0.00160984
-0.00162394
-0.00164213
-0.00166120
-0.00167772
-0.00168933
-0.00169558
-0.00169820
-0.00170056
-0.00170627
-0.00171753
-0.00173415
-0.00175374
-0.00177287
-0.00178853
-0.00179918
-0.00180543
-0.00180990
-0.00181624
-0.00182742
-0.00184435
-0.00186544
-0.00188751
-0.00190713
-0.00192194
-0.00193153
-0.00193769
-0.00194379
-0.00195338
-0.00196851
-0.00198873
-0.00201149
-0.00203326
-0.00205099
-0.00206318
-0.00207049
-0.00207558
-0.00208211
-0.00209301
-0.00210911
-0.00212875
-0.00214868
-0.00216548
-0.00217684
-0.00218240
-0.00218396
-0.00218489
-0.00218875
-0.00219759
-0.00221101
-0.00222648
-0.00224052
-0.00225017
-0.00225409
-0.00225316
-0.00225016
-0.00224872
-0.00225160
-0.00225939
-0.00227027
-0.00228096
-0.00228814
-0.00228971
-0.00228564
-0.00227801
-0.00227031
-0.00226596
-0.00226665
-0.00227166
-0.00227822
-0.00228285
-0.00228267
-0.00227649
-0.00226528
-0.00225194
-0.00224011
-0.00223254
-0.00222977
-0.00222995
-0.00222980
-0.00222605
-0.00221667
-0.00220167
-0.00218324
-0.00216492
-0.00214995
-0.00213971
-0.00213308
-0.00212711
-0.00211842
-0.00210460
-0.00208516
-0.00206178
-0.00203776
-0.00201654
-0.00200003
-0.00198768
-0.00197685
-0.00196406
-0.00194646
-0.00192288
-0.00189437
-0.00186388
-0.00183504
-0.00181047
-0.00179049
-0.00177302
-0.00175469
-0.00173232
-0.00170413
-0.00167046
-0.00163373
-0.00159754
-0.00156498
-0.00153718
-0.00151281
-0.00148884
-0.00146194
-0.00142989
-0.00139243
-0.00135147
-0.00131048
-0.00127292
-0.00124069
-0.00121318
-0.00118775
-0.00116097
-0.00113007
-0.00109396
-0.00105375
-0.00101241
-0.00097356
-0.00093979
-0.00091139
-0.00088628
-0.00086108
-0.00083260
-0.00079902
-0.00076068
-0.00071997
-0.00068047
-0.00064534
-0.00061583
-0.00059070
-0.00056697
-0.00054124
-0.00051112
-0.00047611
-0.00043790
-0.00039979
-0.00036524
-0.00033619
-0.00031204
-0.00029013
-0.00026706
-0.00024012
-0.00020841
-0.00017325
-0.00013774
-0.00010543
-0.00007858
-0.00005707
-0.00003851
-0.00001947
0.00000310
0.00003068
0.00006258
0.00009611
0.00012766
0.00015441
0.00017568
0.00019321
0.00021022
0.00022994
0.00025436
0.00028343
0.00031493
0.00034533
0.00037125
0.00039107
0.00040560
0.00041766
0.00043066
0.00044729
0.00046839
0.00049260
0.00051677
0.00053734
0.00055199
0.00056082
0.00056615
0.00057138
0.00057949
0.00059192
0.00060791
0.00062478
0.00063893
0.00064762
0.00065027
0.00064871
0.00064620
0.00064595
0.00064993
0.00065802
0.00066798
0.00067631
0.00067983
0.00067729
0.00066988
0.00066058
0.00065280
0.00064904
0.00064995
0.00065398
0.00065787
0.00065807
0.00065237
0.00064103
0.00062648
0.00061219
0.00060112
0.00059465
0.00059191
0.00059013
0.00058570
0.00057603
0.00056075
0.00054187
0.00052272
0.00050648
0.00049489
0.00048758
0.00048207
0.00047481
0.00046281
0.00044512
0.00042326
0.00040039
0.00037986
0.00036389
0.00035272
0.00034441
0.00033558
0.00032288
0.00030466
0.00028180
0.00025710
0.00023401
0.00021518
0.00020148
0.00019161
0.00018251
0.00017069
0.00015395
0.00013244
0.00010857
0.00008572
0.00006686
0.00005338
0.00004447
0.00003737
0.00002843
0.00001481
-0.00000414
-0.00002667
-0.00004953
-0.00006944
-0.00008434
-0.00009421
-0.00010118
-0.00010876
-0.00012025
-0.00013716
-0.00015847
-0.00018127
-0.00020208
-0.00021833
-0.00022926
-0.00023634
-0.00024277
-0.00025208
-0.00026647
-0.00028569
-0.00030730
-0.00032787
-0.00034445
-0.00035574
-0.00036261
-0.00036788
-0.00037515
-0.00038713
-0.00040428
-0.00042468
-0.00044502
-0.00046208
-0.00047404
-0.00048119
-0.00048588
-0.00049163
-0.00050142
-0.00051625
-0.00053466
-0.00055353
-0.00056952
-0.00058040
-0.00058593
-0.00058801
-0.00059001
-0.00059527
-0.00060546
-0.00061979
-0.00063548
-0.00064907
-0.00065788
-0.00066095
-0.00065961
-0.00065701
-0.00065678
-0.00066128
-0.00067047
-0.00068202
-0.00069249
-0.00069877
-0.00069932
-0.00069478
-0.00068783
-0.00068212
-0.00068053
-0.00068376
-0.00069007
-0.00069623
-0.00069895
-0.00069626
-0.00068828
-0.00067727
-0.00066679
-0.00066001
-0.00065819
-0.00066010
-0.00066276
-0.00066288
-0.00065819
-0.00064839
-0.00063536
-0.00062249
-0.00061317
-0.00060917
-0.00060978
-0.00061225
-0.00061321
-0.00061001
-0.00060188
-0.00059027
-0.00057834
-0.00056953
-0.00056585
-0.00056689
-0.00057011
-0.00057212
-0.00057012
-0.00056309
-0.00055223
-0.00054060
-0.00053179
-0.00052813
-0.00052958
-0.00053383
-0.00053749
-0.00053750
-0.00053236
-0.00052268
-0.00051106
-0.00050108
-0.00049556
-0.00049523
-0.00049833
-0.00050165
-0.00050196
-0.00049729
-0.00048781
-0.00047577
-0.00046467
-0.00045756
-0.00045548
-0.00045700
-0.00045902
-0.00045829
-0.00045274
-0.00044232
-0.00042918
-0.00041679
-0.00040830
-0.00040496
-0.00040548
-0.00040683
-0.00040566
-0.00039970
-0.00038865
-0.00037439
-0.00036031
-0.00034975
-0.00034436
-0.00034331
-0.00034381
-0.00034242
-0.00033649
-0.00032522
-0.00031007
-0.00029423
-0.00028133
-0.00027365
-0.00027111
-0.00027139
-0.00027115
-0.00026748
-0.00025903
-0.00024666
-0.00023320
-0.00022226
-0.00021647
-0.00021622
-0.00021955
-0.00022316
-0.00022396
-0.00022027
-0.00021259
-0.00020346
-0.00019643
-0.00019436
-0.00019793
-0.00020544
-0.00021365
-0.00021933
-0.00022050
-0.00021725
-0.00021177
-0.00020755
-0.00020767
-0.00021326
-0.00022295
-0.00023364
-0.00024199
-0.00024571
-0.00024448
-0.00024014
-0.00023604
-0.00023553
-0.00024032
-0.00024966
-0.00026080
-0.00027037
-0.00027578
-0.00027630
-0.00027341
-0.00027027
-0.00027029
-0.00027540
-0.00028508
-0.00029673
-0.00030694
-0.00031302
-0.00031407
-0.00031136
-0.00030801
-0.00030749
-0.00031197
-0.00032120
-0.00033274
-0.00034322
-0.00034982
-0.00035143
-0.00034914
-0.00034591
-0.00034529
-0.00034972
-0.00035925
-0.00037164
-0.00038350
-0.00039182
-0.00039507
-0.00039393
-0.00039106
-0.00039003
-0.00039360
-0.00040234
-0.00041437
-0.00042645
-0.00043543
-0.00043961
-0.00043942
-0.00043739
-0.00043708
-0.00044133
-0.00045086
-0.00046396
-0.00047744
-0.00048811
-0.00049413
-0.00049576
-0.00049540
-0.00049656
-0.00050211
-0.00051284
-0.00052709
-0.00054168
-0.00055339
-0.00056023
-0.00056227
-0.00056172
-0.00056208
-0.00056653
-0.00057635
-0.00059035
-0.00060551
-0.00061840
-0.00062660
-0.00062956
-0.00062893
-0.00062796
-0.00063001
-0.00063686
-0.00064782
-0.00066018
-0.00067059
-0.00067652
-0.00067730
-0.00067449
-0.00067128
-0.00067106
-0.00067567
-0.00068447
-0.00069476
-0.00070316
-0.00070707
-0.00070570
-0.00070048
-0.00069454
-0.00069135
-0.00069296
-0.00069900
-0.00070692
-0.00071335
-0.00071551
-0.00071236
-0.00070506
-0.00069661
-0.00069053
-0.00068908
-0.00069209
-0.00069719
-0.00070100
-0.00070074
-0.00069530
-0.00068581
-0.00067525
-0.00066713
-0.00066362
-0.00066451
-0.00066733
-0.00066871
-0.00066587
-0.00065779
-0.00064566
-0.00063252
-0.00062188
-0.00061594
-0.00061446
-0.00061500
-0.00061422
-0.00060940
-0.00059962
-0.00058616
-0.00057207
-0.00056087
-0.00055476
-0.00055357
-0.00055489
-0.00055537
-0.00055217
-0.00054409
-0.00053215
-0.00051923
-0.00050889
-0.00050351
-0.00050317
-0.00050564
-0.00050761
-0.00050624
-0.00050032
-0.00049087
-0.00048082
-0.00047367
-0.00047169
-0.00047476
-0.00048049
-0.00048551
-0.00048704
-0.00048407
-0.00047780
-0.00047128
-0.00046798
-0.00047007
-0.00047731
-0.00048722
-0.00049641
-0.00050207
-0.00050318
-0.00050091
-0.00049832
-0.00049886
-0.00050470
-0.00051555
-0.00052894
-0.00054147
-0.00055035
-0.00055456
-0.00055534
-0.00055575
-0.00055924
-0.00056789
-0.00058126
-0.00059679
-0.00061114
-0.00062171
-0.00062778
-0.00063089
-0.00063418
-0.00064093
-0.00065278
-0.00066887
-0.00068644
-0.00070220
-0.00071382
-0.00072092
-0.00072531
-0.00073029
-0.00073902
-0.00075281
-0.00077048
-0.00078903
-0.00080513
-0.00081655
-0.00082306
-0.00082661
-0.00083059
-0.00083809
-0.00085035
-0.00086607
-0.00088223
-0.00089559
-0.00090419
-0.00090828
-0.00091028
-0.00091363
-0.00092108
-0.00093315
-0.00094797
-0.00096233
-0.00097323
-0.00097925
-0.00098123
-0.00098193
-0.00098478
-0.00099200
-0.00100342
-0.00101667
-0.00102843
-0.00103603
-0.00103863
-0.00103766
-0.00103622
-0.00103760
-0.00104347
-0.00105302
-0.00106349
-0.00107156
-0.00107487
-0.00107305
-0.00106792
-0.00106282
-0.00106098
-0.00106382
-0.00107023
-0.00107731
-0.00108180
-0.00108155
-0.00107650
-0.00106874
-0.00106169
-0.00105834
-0.00105966
-0.00106415
-0.00106873
-0.00107028
-0.00106709
-0.00105962
-0.00105037
-0.00104280
-0.00103948
-0.00104072
-0.00104447
-0.00104747
-0.00104684
-0.00104132
-0.00103185
-0.00102131
-0.00101316
-0.00100970
-0.00101087
-0.00101436
-0.00101686
-0.00101560
-0.00100953
-0.00099984
-0.00098957
-0.00098209
-0.00097934
-0.00098079
-0.00098382
-0.00098512
-0.00098219
-0.00097447
-0.00096366
-0.00095302
-0.00094566
-0.00094284
-0.00094329
-0.00094402
-0.00094184
-0.00093480
-0.00092308
-0.00090897
-0.00089591
-0.00088669
-0.00088199
-0.00088005
-0.00087766
-0.00087174
-0.00086072
-0.00084525
-0.00082798
-0.00081240
-0.00080100
-0.00079393
-0.00078899
-0.00078289
-0.00077283
-0.00075769
-0.00073860
-0.00071850
-0.00070086
-0.00068784
-0.00067919
-0.00067247
-0.00066433
-0.00065216
-0.00063513
-0.00061473
-0.00059408
-0.00057644
-0.00056341
-0.00055409
-0.00054565
-0.00053476
-0.00051918
-0.00049864
-0.00047513
-0.00045198
-0.00043226
-0.00041706
-0.00040502
-0.00039307
-0.00037801
-0.00035791
-0.00033299
-0.00030558
-0.00027916
-0.00025655
-0.00023842
-0.00022301
-0.00020717
-0.00018792
-0.00016384
-0.00013575
-0.00010643
-0.00007934
-0.00005667
-0.00003822
-0.00002156
-0.00000342
0.00001871
0.00004546
0.00007526
0.00010491
0.00013112
0.00015232
0.00016940
0.00018521
0.00020304
0.00022512
0.00025168
0.00028075
0.00030900
0.00033345
0.00035309
0.00036942
0.00038554
0.00040465
0.00042850
0.00045669
0.00048668
0.00051503
0.00053925
0.00055917
0.00057695
0.00059585
0.00061867
0.00064648
0.00067806
0.00071040
0.00074019
0.00076564
0.00078748
0.00080844
0.00083178
0.00085975
0.00089260
0.00092837
0.00096373
0.00099563
0.00102298
0.00104720
0.00107132
0.00109843
0.00113020
0.00116609
0.00120351
0.00123907
0.00127041
0.00129752
0.00132268
0.00134921
0.00137982
0.00141546
0.00145483
0.00149485
0.00153213
0.00156480
0.00159344
0.00162069
0.00164979
0.00168307
0.00172086
0.00176130
0.00180110
0.00183714
0.00186823
0.00189565
0.00192239
0.00195161
0.00198516
0.00202273
0.00206190
0.00209925
0.00213219
0.00216040
0.00218591
0.00221197
0.00224148
0.00227574
0.00231379
0.00235275
0.00238923
0.00242115
0.00244890
0.00247501
0.00250277
0.00253466
0.00257123
0.00261079
0.00265004
0.00268573
0.00271636
0.00274297
0.00276842
0.00279587
0.00282726
0.00286241
0.00289902
0.00293368
0.00296372
0.00298869
0.00301055
0.00303254
0.00305756
0.00308683
0.00311930
0.00315207
0.00318180
0.00320651
0.00322670
0.00324496
0.00326459
0.00328793
0.00331535
0.00334499
0.00337354
0.00339799
0.00341724
0.00343271
0.00344741
0.00346448
0.00348568
0.00351064
0.00353691
0.00356101
0.00358036
0.00359466
0.00360596
0.00361747
0.00363190
0.00365025
0.00367125
0.00369193
0.00370900
0.00372074
0.00372793
0.00373333
0.00374027
0.00375108
0.00376605
0.00378330
0.00379951
0.00381168
0.00381873
0.00382206
0.00382474
0.00383000
0.00383975
0.00385375
0.00386961
0.00388386
0.00389376
0.00389880
0.00390085
0.00390310
0.00390844
0.00391818
0.00393140
0.00394527
0.00395644
0.00396280
0.00396466
0.00396448
0.00396554
0.00397041
0.00397981
0.00399220
0.00400444
0.00401328
0.00401713
0.00401689
0.00401538
0.00401585
0.00402049
0.00402943
0.00404061
0.00405072
0.00405686
0.00405816
0.00405620
0.00405407
0.00405480
0.00406005
0.00406930
0.00407998
0.00408866
0.00409283
0.00409225
0.00408902
0.00408635
0.00408701
0.00409206
0.00410034
0.00410890
0.00411432
0.00411456
0.00410998
0.00410309
0.00409719
0.00409477
0.00409643
0.00410053
0.00410386
0.00410323
0.00409719
0.00408678
0.00407491
0.00406479
0.00405852
0.00405612
0.00405541
0.00405299
0.00404592
0.00403333
0.00401684
0.00399963
0.00398483
0.00397419
0.00396727
0.00396159
0.00395368
0.00394092
0.00392292
0.00390161
0.00388018
0.00386150
0.00384685
0.00383537
0.00382423
0.00380999
0.00379035
0.00376538
0.00373740
0.00370971
0.00368502
0.00366425
0.00364607
0.00362745
0.00360506
0.00357707
0.00354414
0.00350892
0.00347471
0.00344393
0.00341706
0.00339238
0.00336666
0.00333680
0.00330157
0.00326219
0.00322161
0.00318300
0.00314831
0.00311739
0.00308795
0.00305659
0.00302053
0.00297909
0.00293402
0.00288850
0.00284564
0.00280707
0.00277225
0.00273861
0.00270272
0.00266211
0.00261659
0.00256829
0.00252048
0.00247600
0.00243601
0.00239945
0.00236342
0.00232456
0.00228078
0.00223242
0.00218199
0.00213282
0.00208757
0.00204707
0.00200988
0.00197289
0.00193276
0.00188773
0.00183847
0.00178772
0.00173878
0.00169409
0.00165419
0.00161742
0.00158057
0.00154049
0.00149575
0.00144743
0.00139842
0.00135198
0.00131020
0.00127312
0.00123863
0.00120339
0.00116457
0.00112139
0.00107556
0.00103022
0.00098849
0.00095206
0.00092049
0.00089130
0.00086101
0.00082696
0.00078868
0.00074811
0.00070849
0.00067280
0.00064252
0.00061694
0.00059341
0.00056848
0.00053967
0.00050681
0.00047201
0.00043855
0.00040926
0.00038533
0.00036570
0.00034752
0.00032749
0.00030364
0.00027641
0.00024834
0.00022276
0.00020220
0.00018737
0.00017671
0.00016707
0.00015518
0.00013947
0.00012086
0.00010218
0.00008669
0.00007657
0.00007198
0.00007092
0.00007005
0.00006640
0.00005897
0.00004917
0.00004002
0.00003460
0.00003472
0.00004007
0.00004823
0.00005572
0.00005972
0.00005958
0.00005705
0.00005528
0.00005727
0.00006451
0.00007635
0.00009011
0.00010234
0.00011053
0.00011448
0.00011626
0.00011914
0.00012597
0.00013796
0.00015407
0.00017141
0.00018656
0.00019744
0.00020436
0.00020979
0.00021699
0.00022844
0.00024476
0.00026434
0.00028403
0.00030070
0.00031299
0.00032199
0.00033058
0.00034192
0.00035800
0.00037877
0.00040205
0.00042443
0.00044297
0.00045678
0.00046742
0.00047798
0.00049148
0.00050951
0.00053150
0.00055485
0.00057610
0.00059268
0.00060429
0.00061297
0.00062198
0.00063416
0.00065070
0.00067055
0.00069085
0.00070827
0.00072083
0.00072902
0.00073540
0.00074323
0.00075499
0.00077131
0.00079056
0.00080957
0.00082514
0.00083586
0.00084280
0.00084883
0.00085716
0.00086985
0.00088691
0.00090618
0.00092428
0.00093834
0.00094757
0.00095359
0.00095948
0.00096821
0.00098138
0.00099841
0.00101674
0.00103292
0.00104448
0.00105119
0.00105516
0.00105962
0.00106739
0.00107962
0.00109526
0.00111143
0.00112476
0.00113322
0.00113721
0.00113921
0.00114252
0.00114972
0.00116158
0.00117670
0.00119198
0.00120414
0.00121146
0.00121469
0.00121653
0.00122026
0.00122829
0.00124110
0.00125695
0.00127258
0.00128473
0.00129187
0.00129495
0.00129677
0.00130055
0.00130844
0.00132056
0.00133488
0.00134805
0.00135711
0.00136109
0.00136146
0.00136127
0.00136354
0.00136994
0.00137998
0.00139117
0.00140010
0.00140424
0.00140333
0.00139944
0.00139582
0.00139535
0.00139926
0.00140658
0.00141446
0.00141945
0.00141931
0.00141418
0.00140642
0.00139928
0.00139539
0.00139552
0.00139823
0.00140044
0.00139893
0.00139214
0.00138097
0.00136827
0.00135730
0.00135027
0.00134733
0.00134640
0.00134418
0.00133779
0.00132643
0.00131171
0.00129674
0.00128454
0.00127673
0.00127277
0.00127014
0.00126548
0.00125649
0.00124318
0.00122784
0.00121376
0.00120368
0.00119859
0.00119724
0.00119661
0.00119338
0.00118561
0.00117383
0.00116061
0.00114916
0.00114184
0.00113905
0.00113898
0.00113835
0.00113399
0.00112455
0.00111114
0.00109664
0.00108424
0.00107594
0.00107168
0.00106930
0.00106542
0.00105718
0.00104373
0.00102664
0.00100901
0.00099392
0.00098306
0.00097600
0.00097023
0.00096232
0.00094975
0.00093222
0.00091178
0.00089164
0.00087465
0.00086205
0.00085290
0.00084437
0.00083304
0.00081670
0.00079547
0.00077170
0.00074873
0.00072932
0.00071455
0.00070323
0.00069244
0.00067880
0.00066035
0.00063751
0.00061283
0.00058960
0.00057033
0.00055572
0.00054421
0.00053267
0.00051789
0.00049829
0.00047476
0.00045012
0.00042764
0.00040965
0.00039651
0.00038642
0.00037613
0.00036254
0.00034436
0.00032279
0.00030080
0.00028167
0.00026757
0.00025867
0.00025298
0.00024716
0.00023822
0.00022507
0.00020909
0.00019331
0.00018085
0.00017356
0.00017113
0.00017119
0.00017035
0.00016598
0.00015762
0.00014721
0.00013790
0.00013258
0.00013252
0.00013681
0.00014263
0.00014661
0.00014660
0.00014282
0.00013765
0.00013435
0.00013552
0.00014195
0.00015226
0.00016334
0.00017185
0.00017592
0.00017611
0.00017503
0.00017594
0.00018130
0.00019174
0.00020570
0.00022004
0.00023141
0.00023802
0.00024051
0.00024153
0.00024430
0.00025109
0.00026224
0.00027587
0.00028872
0.00029779
0.00030204
0.00030288
0.00030336
0.00030659
0.00031437
0.00032634
0.00034011
0.00035222
0.00035997
0.00036280
0.00036255
0.00036241
0.00036539
0.00037297
0.00038447
0.00039722
0.00040779
0.00041373
0.00041486
0.00041326
0.00041211
0.00041419
0.00042065
0.00043049
0.00044088
0.00044843
0.00045098
0.00044874
0.00044412
0.00044044
0.00044039
0.00044485
0.00045243
0.00046008
0.00046456
0.00046423
0.00045992
0.00045437
0.00045081
0.00045148
0.00045668
0.00046453
0.00047175
0.00047529
0.00047391
0.00046886
0.00046308
0.00045970
0.00046067
0.00046583
0.00047290
0.00047850
0.00047987
0.00047636
0.00046975
0.00046320
0.00045973
0.00046094
0.00046620
0.00047289
0.00047760
0.00047789
0.00047357
0.00046675
0.00046065
0.00045805
0.00046007
0.00046561
0.00047177
0.00047519
0.00047383
0.00046809
0.00046043
0.00045411
0.00045162
0.00045365
0.00045867
0.00046359
0.00046521
0.00046198
0.00045482
0.00044657
0.00044046
0.00043863
0.00044126
0.00044635
0.00045056
0.00045090
0.00044626
0.00043803
0.00042919
0.00042279
0.00042062
0.00042235
0.00042560
0.00042695
0.00042374
0.00041546
0.00040396
0.00039244
0.00038387
0.00037971
0.00037926
0.00037985
0.00037809
0.00037162
0.00036040
0.00034661
0.00033351
0.00032384
0.00031869
0.00031695
0.00031569
0.00031155
0.00030244
0.00028867
0.00027266
0.00025773
0.00024649
0.00023982
0.00023638
0.00023311
0.00022668
0.00021525
0.00019940
0.00018174
0.00016551
0.00015313
0.00014517
0.00013997
0.00013434
0.00012505
0.00011051
0.00009159
0.00007106
0.00005217
0.00003722
0.00002655
0.00001837
0.00000945
-0.00000321
-0.00002080
-0.00004200
-0.00006384
-0.00008308
-0.00009768
-0.00010760
-0.00011498
-0.00012317
-0.00013515
-0.00015188
-0.00017189
-0.00019214
-0.00020952
-0.00022222
-0.00023056
-0.00023691
-0.00024468
-0.00025654
-0.00027299
-0.00029216
-0.00031086
-0.00032619
-0.00033678
-0.00034342
-0.00034882
-0.00035635
-0.00036825
-0.00038448
-0.00040275
-0.00041984
-0.00043313
-0.00044171
-0.00044689
-0.00045166
-0.00045924
-0.00047131
-0.00048710
-0.00050387
-0.00051837
-0.00052826
-0.00053317
-0.00053489
-0.00053666
-0.00054156
-0.00055092
-0.00056362
-0.00057678
-0.00058724
-0.00059297
-0.00059397
-0.00059232
-0.00059136
-0.00059393
-0.00060090
-0.00061069
-0.00062021
-0.00062649
-0.00062799
-0.00062534
-0.00062116
-0.00061889
-0.00062101
-0.00062774
-0.00063699
-0.00064553
-0.00065048
-0.00065063
-0.00064692
-0.00064221
-0.00063989
-0.00064218
-0.00064894
-0.00065786
-0.00066569
-0.00066982
-0.00066933
-0.00066549
-0.00066132
-0.00066020
-0.00066414
-0.00067269
-0.00068336
-0.00069288
-0.00069874
-0.00070032
-0.00069918
-0.00069846
-0.00070138
-0.00070945
-0.00072171
-0.00073533
-0.00074711
-0.00075492
-0.00075868
-0.00076047
-0.00076357
-0.00077071
-0.00078251
-0.00079721
-0.00081163
-0.00082278
-0.00082918
-0.00083146
-0.00083219
-0.00083471
-0.00084138
-0.00085230
-0.00086531
-0.00087725
-0.00088544
-0.00088895
-0.00088903
-0.00088866
-0.00089113
-0.00089830
-0.00090964
-0.00092260
-0.00093397
-0.00094136
-0.00094431
-0.00094454
-0.00094522
-0.00094938
-0.00095824
-0.00097062
-0.00098360
-0.00099405
-0.00100006
-0.00100179
-0.00100147
-0.00100243
-0.00100739
-0.00101699
-0.00102947
-0.00104169
-0.00105072
-0.00105507
-0.00105540
-0.00105431
-0.00105517
-0.00106036
-0.00106996
-0.00108179
-0.00109265
-0.00109986
-0.00110243
-0.00110156
-0.00110022
-0.00110173
-0.00110802
-0.00111855
-0.00113075
-0.00114139
-0.00114814
-0.00115060
-0.00115058
-0.00115128
-0.00115564
-0.00116466
-0.00117687
-0.00118927
-0.00119883
-0.00120389
-0.00120494
-0.00120445
-0.00120579
-0.00121140
-0.00122144
-0.00123376
-0.00124511
-0.00125266
-0.00125529
-0.00125403
-0.00125175
-0.00125175
-0.00125605
-0.00126435
-0.00127419
-0.00128237
-0.00128640
-0.00128562
-0.00128159
-0.00127750
-0.00127661
-0.00128060
-0.00128864
-0.00129802
-0.00130550
-0.00130884
-0.00130779
-0.00130426
-0.00130155
-0.00130261
-0.00130846
-0.00131770
-0.00132735
-0.00133441
-0.00133727
-0.00133647
-0.00133457
-0.00133492
-0.00133988
-0.00134950
-0.00136153
-0.00137269
-0.00138021
-0.00138301
-0.00138225
-0.00138083
-0.00138209
-0.00138799
-0.00139808
-0.00140985
-0.00142008
-0.00142636
-0.00142818
-0.00142725
-0.00142677
-0.00142987
-0.00143788
-0.00144968
-0.00146239
-0.00147289
-0.00147935
-0.00148201
-0.00148321
-0.00148633
-0.00149405
-0.00150685
-0.00152283
-0.00153882
-0.00155197
-0.00156106
-0.00156707
-0.00157285
-0.00158166
-0.00159541
-0.00161357
-0.00163357
-0.00165214
-0.00166695
-0.00167758
-0.00168579
-0.00169480
-0.00170759
-0.00172526
-0.00174644
-0.00176815
-0.00178734
-0.00180232
-0.00181352
-0.00182345
-0.00183540
-0.00185169
-0.00187225
-0.00189481
-0.00191615
-0.00193372
-0.00194680
-0.00195689
-0.00196711
-0.00198055
-0.00199858
-0.00202012
-0.00204230
-0.00206198
-0.00207720
-0.00208813
-0.00209707
-0.00210731
-0.00212134
-0.00213942
-0.00215949
-0.00217840
-0.00219344
-0.00220363
-0.00221023
-0.00221622
-0.00222476
-0.00223739
-0.00225322
-0.00226948
-0.00228306
-0.00229198
-0.00229639
-0.00229853
-0.00230167
-0.00230836
-0.00231888
-0.00233117
-0.00234202
-0.00234866
-0.00235007
-0.00234746
-0.00234380
-0.00234234
-0.00234484
-0.00235058
-0.00235691
-0.00236070
-0.00235989
-0.00235448
-0.00234657
-0.00233949
-0.00233597
-0.00233665
-0.00233974
-0.00234215
-0.00234105
-0.00233522
-0.00232565
-0.00231514
-0.00230699
-0.00230318
-0.00230327
-0.00230474
-0.00230445
-0.00230016
-0.00229162
-0.00228075
-0.00227080
-0.00226465
-0.00226317
-0.00226475
-0.00226633
-0.00226501
-0.00225941
-0.00225041
-0.00224074
-0.00223367
-0.00223116
-0.00223278
-0.00223600
-0.00223762
-0.00223530
-0.00222869
-0.00221960
-0.00221123
-0.00220645
-0.00220617
-0.00220886
-0.00221145
-0.00221101
-0.00220609
-0.00219749
-0.00218793
-0.00218072
-0.00217793
-0.00217925
-0.00218220
-0.00218363
-0.00218123
-0.00217464
-0.00216567
-0.00215752
-0.00215304
-0.00215318
-0.00215642
-0.00215973
-0.00216017
-0.00215629
-0.00214888
-0.00214062
-0.00213482
-0.00213358
-0.00213661
-0.00214146
-0.00214494
-0.00214471
-0.00214041
-0.00213387
-0.00212829
-0.00212650
-0.00212933
-0.00213519
-0.00214101
-0.00214384
-0.00214224
-0.00213700
-0.00213086
-0.00212710
-0.00212775
-0.00213247
-0.00213878
-0.00214349
-0.00214428
-0.00214081
-0.00213494
-0.00212991
-0.00212856
-0.00213170
-0.00213773
-0.00214357
-0.00214634
-0.00214473
-0.00213964
-0.00213386
-0.00213061
-0.00213171
-0.00213654
-0.00214246
-0.00214631
-0.00214596
-0.00214133
-0.00213449
-0.00212872
-0.00212666
-0.00212885
-0.00213349
-0.00213750
-0.00213821
-0.00213458
-0.00212782
-0.00212090
-0.00211694
-0.00211748
-0.00212152
-0.00212627
-0.00212870
-0.00212708
-0.00212185
-0.00211547
-0.00211122
-0.00211137
-0.00211582
-0.00212228
-0.00212759
-0.00212940
-0.00212728
-0.00212301
-0.00211978
-0.00212035
-0.00212549
-0.00213351
-0.00214134
-0.00214613
-0.00214663
-0.00214382
-0.00214052
-0.00213994
-0.00214383
-0.00215146
-0.00216013
-0.00216664
-0.00216888
-0.00216679
-0.00216246
-0.00215916
-0.00215946
-0.00216374
-0.00217006
-0.00217533
-0.00217696
-0.00217413
-0.00216826
-0.00216236
-0.00215947
-0.00216091
-0.00216553
-0.00217044
-0.00217268
-0.00217064
-0.00216491
-0.00215804
-0.00215324
-0.00215252
-0.00215549
-0.00215966
-0.00216187
-0.00215990
-0.00215352
-0.00214472
-0.00213673
-0.00213224
-0.00213179
-0.00213350
-0.00213417
-0.00213095
-0.00212266
-0.00211040
-0.00209702
-0.00208570
-0.00207807
-0.00207327
-0.00206856
-0.00206086
-0.00204830
-0.00203113
-0.00201166
-0.00199320
-0.00197820
-0.00196686
-0.00195708
-0.00194570
-0.00193020
-0.00190984
-0.00188617
-0.00186226
-0.00184104
-0.00182350
-0.00180818
-0.00179206
-0.00177222
-0.00174733
-0.00171824
-0.00168773
-0.00165902
-0.00163390
-0.00161172
-0.00158987
-0.00156529
-0.00153610
-0.00150257
-0.00146705
-0.00143285
-0.00140240
-0.00137583
-0.00135101
-0.00132492
-0.00129526
-0.00126163
-0.00122585
-0.00119112
-0.00116031
-0.00113426
-0.00111141
-0.00108875
-0.00106355
-0.00103475
-0.00100353
-0.00097281
-0.00094561
-0.00092331
-0.00090479
-0.00088723
-0.00086770
-0.00084467
-0.00081880
-0.00079265
-0.00076941
-0.00075098
-0.00073693
-0.00072475
-0.00071137
-0.00069473
-0.00067483
-0.00065380
-0.00063488
-0.00062053
-0.00061096
-0.00060407
-0.00059669
-0.00058634
-0.00057243
-0.00055661
-0.00054196
-0.00053122
-0.00052511
-0.00052193
-0.00051862
-0.00051250
-0.00050258
-0.00049010
-0.00047799
-0.00046932
-0.00046547
-0.00046533
-0.00046604
-0.00046463
-0.00045952
-0.00045131
-0.00044261
-0.00043664
-0.00043541
-0.00043853
-0.00044348
-0.00044714
-0.00044735
-0.00044398
-0.00043909
-0.00043585
-0.00043680
-0.00044230
-0.00045031
-0.00045765
-0.00046167
-0.00046152
-0.00045865
-0.00045606
-0.00045665
-0.00046143
-0.00046896
-0.00047624
-0.00048039
-0.00048007
-0.00047623
-0.00047162
-0.00046937
-0.00047112
-0.00047603
-0.00048134
-0.00048397
-0.00048203
-0.00047579
-0.00046760
-0.00046072
-0.00045745
-0.00045778
-0.00045944
-0.00045932
-0.00045506
-0.00044624
-0.00043469
-0.00042356
-0.00041564
-0.00041172
-0.00041017
-0.00040795
-0.00040225
-0.00039183
-0.00037774
-0.00036280
-0.00035017
-0.00034145
-0.00033578
-0.00033041
-0.00032232
-0.00030976
-0.00029314
-0.00027495
-0.00025842
-0.00024567
-0.00023646
-0.00022836
-0.00021825
-0.00020390
-0.00018513
-0.00016388
-0.00014334
-0.00012605
-0.00011244
-0.00010053
-0.00008719
-0.00006978
-0.00004745
-0.00002159
0.00000478
0.00002863
0.00004866
0.00006608
0.00008375
0.00010461
0.00013015
0.00015971
0.00019065
0.00021974
0.00024503
0.00026696
0.00028805
0.00031137
0.00033894
0.00037073
0.00040457
0.00043722
0.00046619
0.00049117
0.00051419
0.00053835
0.00056613
0.00059820
0.00063298
0.00066734
0.00069833
0.00072488
0.00074837
0.00077178
0.00079799
0.00082837
0.00086210
0.00089643
0.00092813
0.00095532
0.00097851
0.00100028
0.00102370
0.00105083
0.00108160
0.00111386
0.00114437
0.00117069
0.00119264
0.00121232
0.00123287
0.00125677
0.00128468
0.00131507
0.00134488
0.00137121
0.00139305
0.00141182
0.00143049
0.00145194
0.00147750
0.00150626
0.00153547
0.00156197
0.00158410
0.00160263
0.00162023
0.00163994
0.00166358
0.00169086
0.00171944
0.00174609
0.00176852
0.00178674
0.00180300
0.00182042
0.00184135
0.00186619
0.00189317
0.00191913
0.00194134
0.00195909
0.00197409
0.00198939
0.00200773
0.00203015
0.00205547
0.00208076
0.00210293
0.00212048
0.00213441
0.00214751
0.00216282
0.00218210
0.00220492
0.00222882
0.00225053
0.00226777
0.00228063
0.00229134
0.00230304
0.00231809
0.00233695
0.00235793
0.00237792
0.00239414
0.00240574
0.00241430
0.00242286
0.00243432
0.00245004
0.00246919
0.00248905
0.00250639
0.00251928
0.00252823
0.00253579
0.00254508
0.00255819
0.00257516
0.00259388
0.00261109
0.00262411
0.00263235
0.00263761
0.00264300
0.00265128
0.00266357
0.00267870
0.00269380
0.00270578
0.00271313
0.00271678
0.00271949
0.00272440
0.00273344
0.00274651
0.00276139
0.00277480
0.00278417
0.00278911
0.00279155
0.00279456
0.00280073
0.00281089
0.00282367
0.00283610
0.00284511
0.00284933
0.00284984
0.00284950
0.00285127
0.00285677
0.00286544
0.00287476
0.00288146
0.00288338
0.00288072
0.00287586
0.00287194
0.00287127
0.00287422
0.00287897
0.00288236
0.00288149
0.00287541
0.00286557
0.00285494
0.00284649
0.00284170
0.00283994
0.00283860
0.00283438
0.00282511
0.00281100
0.00279441
0.00277854
0.00276577
0.00275655
0.00274914
0.00274035
0.00272737
0.00270935
0.00268791
0.00266609
0.00264673
0.00263113
0.00261836
0.00260569
0.00258991
0.00256917
0.00254401
0.00251700
0.00249129
0.00246906
0.00245050
0.00243363
0.00241526
0.00239271
0.00236539
0.00233504
0.00230479
0.00227753
0.00225462
0.00223523
0.00221666
0.00219568
0.00217037
0.00214120
0.00211069
0.00208196
0.00205715
0.00203642
0.00201776
0.00199793
0.00197428
0.00194621
0.00191552
0.00188527
0.00185820
0.00183542
0.00181584
0.00179657
0.00177445
0.00174775
0.00171716
0.00168534
0.00165538
0.00162936
0.00160731
0.00158713
0.00156563
0.00154018
0.00151031
0.00147785
0.00144596
0.00141748
0.00139369
0.00137368
0.00135469
0.00133352
0.00130831
0.00127958
0.00124994
0.00122258
0.00119979
0.00118189
0.00116708
0.00115217
0.00113435
0.00111277
0.00108904
0.00106619
0.00104705
0.00103297
0.00102308
0.00101464
0.00100448
0.00099074
0.00097400
0.00095683
0.00094235
0.00093271
0.00092803
0.00092628
0.00092421
0.00091909
0.00091025
0.00089937
0.00088952
0.00088352
0.00088272
0.00088629
0.00089153
0.00089512
0.00089489
0.00089103
0.00088585
0.00088244
0.00088309
0.00088819
0.00089596
0.00090324
0.00090707
0.00090636
0.00090247
0.00089833
0.00089689
0.00089974
0.00090629
0.00091401
0.00091962
0.00092084
0.00091771
0.00091247
0.00090829
0.00090766
0.00091133
0.00091785
0.00092417
0.00092720
0.00092546
0.00091990
0.00091331
0.00090887
0.00090871
0.00091297
0.00091971
0.00092563
0.00092772
0.00092486
0.00091834
0.00091110
0.00090617
0.00090529
0.00090809
0.00091219
0.00091431
0.00091206
0.00090527
0.00089604
0.00088752
0.00088232
0.00088132
0.00088323
0.00088507
0.00088371
0.00087756
0.00086747
0.00085619
0.00084685
0.00084155
0.00084039
0.00084134
0.00084112
0.00083690
0.00082786
0.00081559
0.00080312
0.00079338
0.00078783
0.00078582
0.00078476
0.00078132
0.00077320
0.00076039
0.00074513
0.00073058
0.00071930
0.00071207
0.00070748
0.00070251
0.00069404
0.00068056
0.00066303
0.00064422
0.00062729
0.00061431
0.00060532
0.00059822
0.00058976
0.00057726
0.00056013
0.00054014
0.00052044
0.00050393
0.00049203
0.00048402
0.00047727
0.00046843
0.00045519
0.00043753
0.00041763
0.00039867
0.00038328
0.00037240
0.00036486
0.00035779
0.00034797
0.00033356
0.00031513
0.00029526
0.00027713
0.00026303
0.00025330
0.00024615
0.00023842
0.00022721
0.00021148
0.00019262
0.00017357
0.00015733
0.00014560
0.00013797
0.00013206
0.00012457
0.00011302
0.00009710
0.00007884
0.00006138
0.00004747
0.00003823
0.00003258
0.00002768
0.00002033
0.00000871
-0.00000661
-0.00002306
-0.00003751
-0.00004774
-0.00005349
-0.00005663
-0.00006039
-0.00006771
-0.00007962
-0.00009469
-0.00010993
-0.00012230
-0.00013006
-0.00013357
-0.00013520
-0.00013828
-0.00014532
-0.00015667
-0.00017037
-0.00018329
-0.00019264
-0.00019728
-0.00019822
-0.00019826
-0.00020062
-0.00020717
-0.00021740
-0.00022879
-0.00023822
-0.00024339
-0.00024393
-0.00024159
-0.00023957
-0.00024091
-0.00024686
-0.00025624
-0.00026617
-0.00027359
-0.00027669
-0.00027571
-0.00027301
-0.00027186
-0.00027478
-0.00028206
-0.00029167
-0.00030046
-0.00030567
-0.00030620
-0.00030315
-0.00029936
-0.00029809
-0.00030119
-0.00030816
-0.00031648
-0.00032300
-0.00032540
-0.00032324
-0.00031822
-0.00031346
-0.00031196
-0.00031490
-0.00032103
-0.00032746
-0.00033109
-0.00033003
-0.00032438
-0.00031634
-0.00030920
-0.00030570
-0.00030651
-0.00030998
-0.00031308
-0.00031296
-0.00030822
-0.00029959
-0.00028971
-0.00028187
-0.00027829
-0.00027886
-0.00028130
-0.00028245
-0.00027979
-0.00027263
-0.00026244
-0.00025229
-0.00024531
-0.00024298
-0.00024435
-0.00024667
-0.00024679
-0.00024266
-0.00023425
-0.00022364
-0.00021410
-0.00020849
-0.00020769
-0.00021014
-0.00021278
-0.00021257
-0.00020783
-0.00019897
-0.00018839
-0.00017944
-0.00017470
-0.00017460
-0.00017728
-0.00017967
-0.00017904
-0.00017424
-0.00016624
-0.00015784
-0.00015231
-0.00015169
-0.00015567
-0.00016184
-0.00016701
-0.00016873
-0.00016640
-0.00016162
-0.00015745
-0.00015691
-0.00016123
-0.00016922
-0.00017797
-0.00018440
-0.00018659
-0.00018465
-0.00018077
-0.00017821
-0.00017964
-0.00018566
-0.00019452
-0.00020314
-0.00020863
-0.00020962
-0.00020684
-0.00020295
-0.00020120
-0.00020375
-0.00021041
-0.00021883
-0.00022586
-0.00022903
-0.00022770
-0.00022340
-0.00021919
-0.00021817
-0.00022173
-0.00022887
-0.00023677
-0.00024229
-0.00024345
-0.00024023
-0.00023473
-0.00023018
-0.00022931
-0.00023284
-0.00023911
-0.00024504
-0.00024767
-0.00024544
-0.00023887
-0.00023045
-0.00022351
-0.00022053
-0.00022182
-0.00022541
-0.00022812
-0.00022715
-0.00022124
-0.00021133
-0.00020021
-0.00019123
-0.00018657
-0.00018606
-0.00018736
-0.00018730
-0.00018335
-0.00017483
-0.00016319
-0.00015147
-0.00014280
-0.00013870
-0.00013826
-0.00013871
-0.00013687
-0.00013059
-0.00011968
-0.00010606
-0.00009299
-0.00008348
-0.00007866
-0.00007721
-0.00007619
-0.00007252
-0.00006438
-0.00005201
-0.00003765
-0.00002463
-0.00001560
-0.00001116
-0.00000959
-0.00000784
-0.00000305
0.00000618
0.00001912
0.00003312
0.00004481
0.00005185
0.00005418
0.00005395
0.00005429
0.00005780
0.00006538
0.00007577
0.00008603
0.00009297
0.00009492
0.00009254
0.00008849
0.00008595
0.00008718
0.00009252
0.00010020
0.00010704
0.00011010
0.00010824
0.00010273
0.00009647
0.00009254
0.00009283
0.00009718
0.00010339
0.00010816
0.00010868
0.00010423
0.00009647
0.00008852
0.00008340
0.00008274
0.00008607
0.00009096
0.00009412
0.00009309
0.00008759
0.00007963
0.00007236
0.00006858
0.00006945
0.00007400
0.00007948
0.00008265
0.00008152
0.00007643
0.00006978
0.00006473
0.00006362
0.00006697
0.00007311
0.00007895
0.00008148
0.00007945
0.00007403
0.00006809
0.00006473
0.00006583
0.00007120
0.00007860
0.00008471
0.00008694
0.00008478
0.00008008
0.00007593
0.00007508
0.00007875
0.00008604
0.00009421
0.00010000
0.00010136
0.00009858
0.00009404
0.00009097
0.00009187
0.00009744
0.00010620
0.00011509
0.00012093
0.00012215
0.00011957
0.00011590
0.00011429
0.00011694
0.00012412
0.00013398
0.00014330
0.00014914
0.00015039
0.00014835
0.00014596
0.00014627
0.00015112
0.00016028
0.00017147
0.00018135
0.00018719
0.00018835
0.00018654
0.00018487
0.00018625
0.00019210
0.00020173
0.00021253
0.00022120
0.00022548
0.00022537
0.00022305
0.00022172
0.00022405
0.00023104
0.00024156
0.00025274
0.00026130
0.00026522
0.00026483
0.00026253
0.00026154
0.00026440
0.00027188
0.00028261
0.00029360
0.00030164
0.00030498
0.00030427
0.00030211
0.00030165
0.00030513
0.00031292
0.00032333
0.00033320
0.00033948
0.00034082
0.00033833
0.00033486
0.00033350
0.00033614
0.00034266
0.00035091
0.00035757
0.00035987
0.00035708
0.00035081
0.00034410
0.00033995
0.00033993
0.00034355
0.00034834
0.00035097
0.00034896
0.00034201
0.00033210
0.00032239
0.00031571
0.00031338
0.00031456
0.00031659
0.00031611
0.00031088
0.00030092
0.00028844
0.00027669
0.00026836
0.00026448
0.00026394
0.00026385
0.00026096
0.00025336
0.00024147
0.00022775
0.00021538
0.00020677
0.00020248
0.00020098
0.00019921
0.00019414
0.00018446
0.00017125
0.00015736
0.00014590
0.00013889
0.00013632
0.00013610
0.00013496
0.00013008
0.00012065
0.00010822
0.00009580
0.00008633
0.00008140
0.00008055
0.00008132
0.00008037
0.00007514
0.00006519
0.00005242
0.00003997
0.00003077
0.00002628
0.00002583
0.00002687
0.00002607
0.00002111
0.00001185
0.00000045
-0.00000994
-0.00001667
-0.00001880
-0.00001752
-0.00001574
-0.00001665
-0.00002207
-0.00003143
-0.00004215
-0.00005107
-0.00005581
-0.00005590
-0.00005297
-0.00005012
-0.00005041
-0.00005521
-0.00006349
-0.00007247
-0.00007905
-0.00008120
-0.00007883
-0.00007393
-0.00006973
-0.00006903
-0.00007267
-0.00007910
-0.00008532
-0.00008840
-0.00008677
-0.00008095
-0.00007340
-0.00006741
-0.00006539
-0.00006754
-0.00007179
-0.00007499
-0.00007435
-0.00006871
-0.00005898
-0.00004792
-0.00003881
-0.00003378
-0.00003265
-0.00003312
-0.00003196
-0.00002654
-0.00001592
-0.00000134
0.00001427
0.00002758
0.00003656
0.00004154
0.00004493
0.00004996
0.00005917
0.00007342
0.00009144
0.00011029
0.00012673
0.00013889
0.00014727
0.00015438
0.00016341
0.00017678
0.00019513
0.00021697
0.00023929
0.00025895
0.00027445
0.00028664
0.00029828
0.00031258
0.00033180
0.00035634
0.00038448
0.00041308
0.00043911
0.00046120
0.00048039
0.00049946
0.00052151
0.00054858
0.00058079
0.00061618
0.00065146
0.00068356
0.00071113
0.00073521
0.00075854
0.00078419
0.00081419
0.00084863
0.00088551
0.00092157
0.00095388
0.00098146
0.00100570
0.00102954
0.00105606
0.00108710
0.00112248
0.00115999
0.00119632
0.00122874
0.00125658
0.00128150
0.00130656
0.00133468
0.00136738
0.00140416
0.00144256
0.00147924
0.00151158
0.00153901
0.00156327
0.00158738
0.00161421
0.00164521
0.00167974
0.00171524
0.00174829
0.00177634
0.00179899
0.00181813
0.00183686
0.00185797
0.00188273
0.00191031
0.00193804
0.00196259
0.00198165
0.00199513
0.00200514
0.00201483
0.00202696
0.00204275
0.00206139
0.00208021
0.00209590
0.00210620
0.00211105
0.00211260
0.00211408
0.00211824
0.00212620
0.00213699
0.00214779
0.00215529
0.00215739
0.00215426
0.00214825
0.00214255
0.00213976
0.00214083
0.00214455
0.00214805
0.00214804
0.00214260
0.00213214
0.00211912
0.00210669
0.00209727
0.00209145
0.00208771
0.00208300
0.00207422
0.00205987
0.00204082
0.00201981
0.00200005
0.00198380
0.00197144
0.00196125
0.00195007
0.00193486
0.00191424
0.00188925
0.00186269
0.00183773
0.00181661
0.00179966
0.00178513
0.00176986
0.00175076
0.00172640
0.00169775
0.00166753
0.00163889
0.00161404
0.00159328
0.00157484
0.00155554
0.00153232
0.00150384
0.00147118
0.00143716
0.00140488
0.00137638
0.00135176
0.00132904
0.00130499
0.00127675
0.00124335
0.00120621
0.00116830
0.00113267
0.00110118
0.00107371
0.00104810
0.00102106
0.00098977
0.00095336
0.00091334
0.00087270
0.00083452
0.00080065
0.00077098
0.00074340
0.00071458
0.00068164
0.00064356
0.00060171
0.00055903
0.00051865
0.00048258
0.00045091
0.00042174
0.00039184
0.00035828
0.00031994
0.00027809
0.00023567
0.00019583
0.00016060
0.00013007
0.00010225
0.00007387
0.00004194
0.00000528
-0.00003490
-0.00007571
-0.00011391
-0.00014728
-0.00017542
-0.00019999
-0.00022412
-0.00025102
-0.00028238
-0.00031754
-0.00035391
-0.00038827
-0.00041817
-0.00044283
-0.00046356
-0.00048330
-0.00050543
-0.00053214
-0.00056335
-0.00059684
-0.00062942
-0.00065834
-0.00068237
-0.00070236
-0.00072096
-0.00074154
-0.00076651
-0.00079613
-0.00082843
-0.00086027
-0.00088875
-0.00091246
-0.00093201
-0.00094994
-0.00096964
-0.00099363
-0.00102230
-0.00105376
-0.00108484
-0.00111258
-0.00113545
-0.00115400
-0.00117070
-0.00118891
-0.00121130
-0.00123845
-0.00126867
-0.00129888
-0.00132605
-0.00134842
-0.00136625
-0.00138175
-0.00139822
-0.00141838
-0.00144295
-0.00147035
-0.00149754
-0.00152149
-0.00154044
-0.00155460
-0.00156615
-0.00157840
-0.00159416
-0.00161431
-0.00163738
-0.00166039
-0.00168026
-0.00169513
-0.00170515
-0.00171248
-0.00172043
-0.00173193
-0.00174801
-0.00176735
-0.00178701
-0.00180381
-0.00181562
-0.00182221
-0.00182543
-0.00182851
-0.00183461
-0.00184523
-0.00185951
-0.00187475
-0.00188778
-0.00189639
-0.00190020
-0.00190095
-0.00190183
-0.00190596
-0.00191477
-0.00192728
-0.00194074
-0.00195198
-0.00195875
-0.00196066
-0.00195936
-0.00195797
-0.00195962
-0.00196589
-0.00197596
-0.00198720
-0.00199639
-0.00200116
-0.00200094
-0.00199721
-0.00199308
-0.00199180
-0.00199521
-0.00200273
-0.00201181
-0.00201922
-0.00202245
-0.00202069
-0.00201525
-0.00200907
-0.00200551
-0.00200670
-0.00201247
-0.00202055
-0.00202778
-0.00203153
-0.00203080
-0.00202665
-0.00202189
-0.00201986
-0.00202271
-0.00203035
-0.00204052
-0.00205001
-0.00205615
-0.00205784
-0.00205611
-0.00205376
-0.00205412
-0.00205936
-0.00206938
-0.00208194
-0.00209379
-0.00210217
-0.00210583
-0.00210563
-0.00210427
-0.00210515
-0.00211072
-0.00212124
-0.00213469
-0.00214793
-0.00215807
-0.00216364
-0.00216528
-0.00216553
-0.00216773
-0.00217437
-0.00218577
-0.00220000
-0.00221392
-0.00222474
-0.00223117
-0.00223406
-0.00223613
-0.00224069
-0.00224997
-0.00226393
-0.00228036
-0.00229603
-0.00230819
-0.00231565
-0.00231935
-0.00232200
-0.00232692
-0.00233633
-0.00235026
-0.00236653
-0.00238190
-0.00239348
-0.00239987
-0.00240178
-0.00240185
-0.00240345
-0.00240903
-0.00241884
-0.00243087
-0.00244198
-0.00244933
-0.00245159
-0.00244952
-0.00244581
-0.00244385
-0.00244609
-0.00245275
-0.00246180
-0.00247008
-0.00247479
-0.00247471
-0.00247068
-0.00246542
-0.00246227
-0.00246342
-0.00246881
-0.00247621
-0.00248243
-0.00248484
-0.00248244
-0.00247634
-0.00246939
-0.00246487
-0.00246479
-0.00246885
-0.00247471
-0.00247921
-0.00247983
-0.00247575
-0.00246827
-0.00246035
-0.00245524
-0.00245483
-0.00245864
-0.00246415
-0.00246813
-0.00246807
-0.00246329
-0.00245521
-0.00244683
-0.00244138
-0.00244057
-0.00244379
-0.00244845
-0.00245138
-0.00245025
-0.00244458
-0.00243599
-0.00242761
-0.00242255
-0.00242227
-0.00242582
-0.00243045
-0.00243297
-0.00243121
-0.00242492
-0.00241594
-0.00240748
-0.00240254
-0.00240240
-0.00240594
-0.00241036
-0.00241255
-0.00241040
-0.00240375
-0.00239447
-0.00238575
-0.00238060
-0.00238019
-0.00238331
-0.00238710
-0.00238844
-0.00238544
-0.00237813
-0.00236862
-0.00236016
-0.00235552
-0.00235551
-0.00235856
-0.00236163
-0.00236176
-0.00235732
-0.00234874
-0.00233844
-0.00232965
-0.00232479
-0.00232410
-0.00232558
-0.00232614
-0.00232309
-0.00231526
-0.00230359
-0.00229081
-0.00228019
-0.00227382
-0.00227156
-0.00227110
-0.00226926
-0.00226339
-0.00225245
-0.00223755
-0.00222157
-0.00220778
-0.00219819
-0.00219240
-0.00218793
-0.00218157
-0.00217082
-0.00215496
-0.00213544
-0.00211529
-0.00209765
-0.00208418
-0.00207415
-0.00206491
-0.00205325
-0.00203691
-0.00201550
-0.00199076
-0.00196584
-0.00194360
-0.00192515
-0.00190919
-0.00189280
-0.00187291
-0.00184764
-0.00181719
-0.00178377
-0.00175065
-0.00172054
-0.00169408
-0.00166960
-0.00164407
-0.00161462
-0.00157983
-0.00154039
-0.00149892
-0.00145883
-0.00142254
-0.00139030
-0.00136008
-0.00132875
-0.00129356
-0.00125340
-0.00120925
-0.00116391
-0.00112065
-0.00108155
-0.00104637
-0.00101280
-0.00097768
-0.00093850
-0.00089448
-0.00084693
-0.00079879
-0.00075322
-0.00071191
-0.00067423
-0.00063759
-0.00059884
-0.00055573
-0.00050791
-0.00045716
-0.00040663
-0.00035933
-0.00031643
-0.00027677
-0.00023750
-0.00019558
-0.00014909
-0.00009810
-0.00004475
0.00000768
0.00005644
0.00010078
0.00014232
0.00018404
0.00022878
0.00027796
0.00033087
0.00038491
0.00043679
0.00048426
0.00052731
0.00056809
0.00060973
0.00065484
0.00070440
0.00075721
0.00081040
0.00086071
0.00090623
0.00094739
0.00098666
0.00102716
0.00107124
0.00111937
0.00116994
0.00121982
0.00126592
0.00130683
0.00134355
0.00137886
0.00141578
0.00145620
0.00149998
0.00154494
0.00158781
0.00162595
0.00165875
0.00168799
0.00171672
0.00174781
0.00178265
0.00182051
0.00185879
0.00189425
0.00192475
0.00195042
0.00197357
0.00199738
0.00202445
0.00205567
0.00208979
0.00212386
0.00215471
0.00218059
0.00220213
0.00222190
0.00224308
0.00226800
0.00229718
0.00232904
0.00236046
0.00238836
0.00241126
0.00243009
0.00244756
0.00246677
0.00248980
0.00251683
0.00254600
0.00257414
0.00259833
0.00261756
0.00263320
0.00264821
0.00266560
0.00268712
0.00271246
0.00273930
0.00276434
0.00278505
0.00280103
0.00281416
0.00282751
0.00284384
0.00286436
0.00288817
0.00291254
0.00293415
0.00295079
0.00296249
0.00297143
0.00298076
0.00299313
0.00300957
0.00302900
0.00304858
0.00306503
0.00307632
0.00308273
0.00308664
0.00309120
0.00309881
0.00311007
0.00312344
0.00313585
0.00314421
0.00314707
0.00314536
0.00314183
0.00313962
0.00314088
0.00314577
0.00315242
0.00315763
0.00315857
0.00315427
0.00314616
0.00313720
0.00313049
0.00312791
0.00312937
0.00313271
0.00313461
0.00313225
0.00312472
0.00311351
0.00310155
0.00309180
0.00308590
0.00308343
0.00308204
0.00307841
0.00307004
0.00305657
0.00303988
0.00302307
0.00300889
0.00299859
0.00299128
0.00298424
0.00297421
0.00295906
0.00293895
0.00291616
0.00289385
0.00287460
0.00285923
0.00284647
0.00283336
0.00281661
0.00279429
0.00276682
0.00273667
0.00270708
0.00268066
0.00265828
0.00263870
0.00261901
0.00259602
0.00256789
0.00253512
0.00250022
0.00246639
0.00243613
0.00241021
0.00238733
0.00236456
0.00233868
0.00230792
0.00227281
0.00223588
0.00220032
0.00216859
0.00214134
0.00211716
0.00209304
0.00206579
0.00203367
0.00199731
0.00195925
0.00192273
0.00189016
0.00186217
0.00183724
0.00181234
0.00178432
0.00175158
0.00171486
0.00167679
0.00164053
0.00160845
0.00158111
0.00155701
0.00153313
0.00150633
0.00147503
0.00143996
0.00140379
0.00136969
0.00134000
0.00131517
0.00129357
0.00127209
0.00124769
0.00121907
0.00118729
0.00115519
0.00112587
0.00110132
0.00108158
0.00106461
0.00104717
0.00102639
0.00100129
0.00097323
0.00094516
0.00092016
0.00090011
0.00088491
0.00087242
0.00085935
0.00084291
0.00082225
0.00079884
0.00077566
0.00075578
0.00074104
0.00073133
0.00072453
0.00071728
0.00070664
0.00069156
0.00067333
0.00065485
0.00063911
0.00062790
0.00062104
0.00061628
0.00061032
0.00060033
0.00058549
0.00056728
0.00054868
0.00053268
0.00052099
0.00051335
0.00050751
0.00050015
0.00048852
0.00047186
0.00045171
0.00043108
0.00041301
0.00039929
0.00038974
0.00038214
0.00037320
0.00036013
0.00034211
0.00032066
0.00029878
0.00027951
0.00026468
0.00025413
0.00024574
0.00023621
0.00022268
0.00020423
0.00018227
0.00015978
0.00013987
0.00012446
0.00011355
0.00010507
0.00009574
0.00008261
0.00006459
0.00004292
0.00002049
0.00000042
-0.00001523
-0.00002635
-0.00003487
-0.00004402
-0.00005677
-0.00007425
-0.00009522
-0.00011681
-0.00013582
-0.00015011
-0.00015941
-0.00016555
-0.00017171
-0.00018095
-0.00019462
-0.00021174
-0.00022960
-0.00024511
-0.00025612
-0.00026232
-0.00026542
-0.00026855
-0.00027478
-0.00028548
-0.00029965
-0.00031455
-0.00032705
-0.00033510
-0.00033850
-0.00033915
-0.00034027
-0.00034481
-0.00035395
-0.00036649
-0.00037958
-0.00039008
-0.00039596
-0.00039709
-0.00039542
-0.00039423
-0.00039663
-0.00040401
-0.00041536
-0.00042787
-0.00043834
-0.00044450
-0.00044589
-0.00044413
-0.00044232
-0.00044362
-0.00044965
-0.00045970
-0.00047114
-0.00048077
-0.00048616
-0.00048670
-0.00048386
-0.00048068
-0.00048035
-0.00048460
-0.00049282
-0.00050245
-0.00051032
-0.00051408
-0.00051319
-0.00050917
-0.00050506
-0.00050398
-0.00050750
-0.00051490
-0.00052354
-0.00053022
-0.00053258
-0.00053010
-0.00052432
-0.00051835
-0.00051539
-0.00051707
-0.00052269
-0.00052959
-0.00053464
-0.00053555
-0.00053187
-0.00052522
-0.00051868
-0.00051543
-0.00051704
-0.00052273
-0.00052983
-0.00053516
-0.00053640
-0.00053309
-0.00052685
-0.00052084
-0.00051823
-0.00052069
-0.00052749
-0.00053605
-0.00054317
-0.00054654
-0.00054560
-0.00054192
-0.00053861
-0.00053885
-0.00054429
-0.00055416
-0.00056582
-0.00057607
-0.00058258
-0.00058481
-0.00058436
-0.00058430
-0.00058773
-0.00059618
-0.00060882
-0.00062298
-0.00063552
-0.00064423
-0.00064874
-0.00065074
-0.00065333
-0.00065947
-0.00067042
-0.00068506
-0.00070060
-0.00071394
-0.00072309
-0.00072800
-0.00073068
-0.00073433
-0.00074184
-0.00075421
-0.00077008
-0.00078652
-0.00080047
-0.00081010
-0.00081554
-0.00081893
-0.00082358
-0.00083236
-0.00084626
-0.00086391
-0.00088244
-0.00089880
-0.00091115
-0.00091957
-0.00092621
-0.00093433
-0.00094672
-0.00096425
-0.00098540
-0.00100717
-0.00102650
-0.00104154
-0.00105246
-0.00106140
-0.00107156
-0.00108559
-0.00110411
-0.00112544
-0.00114651
-0.00116434
-0.00117727
-0.00118559
-0.00119160
-0.00119854
-0.00120904
-0.00122368
-0.00124074
-0.00125713
-0.00126988
-0.00127737
-0.00128007
-0.00128037
-0.00128157
-0.00128617
-0.00129462
-0.00130507
-0.00131447
-0.00131987
-0.00131974
-0.00131456
-0.00130674
-0.00129964
-0.00129595
-0.00129628
-0.00129897
-0.00130099
-0.00129945
-0.00129285
-0.00128173
-0.00126855
-0.00125658
-0.00124832
-0.00124411
-0.00124205
-0.00123904
-0.00123228
-0.00122044
-0.00120429
-0.00118642
-0.00117018
-0.00115795
-0.00114997
-0.00114421
-0.00113755
-0.00112718
-0.00111177
-0.00109206
-0.00107068
-0.00105098
-0.00103545
-0.00102443
-0.00101603
-0.00100718
-0.00099507
-0.00097827
-0.00095734
-0.00093471
-0.00091363
-0.00089651
-0.00088363
-0.00087305
-0.00086161
-0.00084650
-0.00082643
-0.00080215
-0.00077628
-0.00075212
-0.00073201
-0.00071606
-0.00070224
-0.00068745
-0.00066904
-0.00064590
-0.00061902
-0.00059114
-0.00056558
-0.00054450
-0.00052775
-0.00051309
-0.00049742
-0.00047825
-0.00045474
-0.00042817
-0.00040144
-0.00037776
-0.00035892
-0.00034436
-0.00033157
-0.00031744
-0.00029968
-0.00027786
-0.00025363
-0.00023010
-0.00021044
-0.00019615
-0.00018638
-0.00017841
-0.00016912
-0.00015637
-0.00013995
-0.00012171
-0.00010479
-0.00009205
-0.00008452
-0.00008083
-0.00007804
-0.00007311
-0.00006420
-0.00005148
-0.00003715
-0.00002450
-0.00001632
-0.00001342
-0.00001423
-0.00001576
-0.00001498
-0.00001017
-0.00000159
0.00000850
0.00001682
0.00002071
0.00001954
0.00001501
0.00001015
0.00000788
0.00000976
0.00001535
0.00002226
0.00002723
0.00002769
0.00002318
0.00001551
0.00000777
0.00000290
0.00000247
0.00000601
0.00001111
0.00001445
0.00001350
0.00000780
-0.00000082
-0.00000926
-0.00001457
-0.00001520
-0.00001160
-0.00000616
-0.00000218
-0.00000222
-0.00000674
-0.00001391
-0.00002067
-0.00002410
-0.00002271
-0.00001704
-0.00000952
-0.00000348
-0.00000150
-0.00000408
-0.00000940
-0.00001435
-0.00001602
-0.00001291
-0.00000559
0.00000344
0.00001089
0.00001438
0.00001370
0.00001086
0.00000897
0.00001080
0.00001760
0.00002853
0.00004091
0.00005138
0.00005759
0.00005941
0.00005892
0.00005920
0.00006297
0.00007149
0.00008398
0.00009786
0.00010981
0.00011746
0.00012063
0.00012137
0.00012283
0.00012780
0.00013755
0.00015121
0.00016612
0.00017894
0.00018745
0.00019165
0.00019369
0.00019672
0.00020335
0.00021461
0.00022942
0.00024500
0.00025810
0.00026669
0.00027100
0.00027335
0.00027689
0.00028420
0.00029618
0.00031164
0.00032775
0.00034131
0.00035043
0.00035552
0.00035898
0.00036393
0.00037287
0.00038658
0.00040374
0.00042139
0.00043630
0.00044661
0.00045283
0.00045747
0.00046374
0.00047412
0.00048931
0.00050796
0.00052707
0.00054340
0.00055505
0.00056250
0.00056820
0.00057530
0.00058625
0.00060177
0.00062051
0.00063951
0.00065554
0.00066675
0.00067358
0.00067850
0.00068462
0.00069429
0.00070807
0.00072440
0.00074019
0.00075232
0.00075923
0.00076176
0.00076254
0.00076476
0.00077073
0.00078093
0.00079379
0.00080619
0.00081500
0.00081865
0.00081789
0.00081535
0.00081421
0.00081679
0.00082360
0.00083307
0.00084211
0.00084760
0.00084802
0.00084421
0.00083886
0.00083517
0.00083543
0.00084013
0.00084769
0.00085502
0.00085898
0.00085795
0.00085267
0.00084573
0.00084033
0.00083884
0.00084184
0.00084780
0.00085361
0.00085608
0.00085348
0.00084649
0.00083768
0.00083025
0.00082665
0.00082758
0.00083163
0.00083578
0.00083686
0.00083320
0.00082550
0.00081632
0.00080883
0.00080534
0.00080637
0.00081040
0.00081438
0.00081513
0.00081100
0.00080267
0.00079273
0.00078438
0.00078002
0.00078029
0.00078376
0.00078744
0.00078806
0.00078373
0.00077486
0.00076385
0.00075391
0.00074767
0.00074613
0.00074823
0.00075115
0.00075150
0.00074692
0.00073726
0.00072455
0.00071191
0.00070218
0.00069677
0.00069502
0.00069440
0.00069158
0.00068403
0.00067136
0.00065543
0.00063931
0.00062593
0.00061682
0.00061149
0.00060756
0.00060164
0.00059104
0.00057502
0.00055519
0.00053460
0.00051630
0.00050214
0.00049195
0.00048362
0.00047386
0.00045978
0.00044036
0.00041689
0.00039228
0.00036964
0.00035103
0.00033662
0.00032450
0.00031140
0.00029418
0.00027142
0.00024409
0.00021493
0.00018709
0.00016280
0.00014247
0.00012443
0.00010558
0.00008282
0.00005467
0.00002202
-0.00001239
-0.00004534
-0.00007447
-0.00009915
-0.00012086
-0.00014261
-0.00016763
-0.00019780
-0.00023267
-0.00026978
-0.00030590
-0.00033840
-0.00036631
-0.00039075
-0.00041455
-0.00044105
-0.00047246
-0.00050870
-0.00054761
-0.00058601
-0.00062112
-0.00065167
-0.00067846
-0.00070415
-0.00073207
-0.00076452
-0.00080155
-0.00084104
-0.00087977
-0.00091491
-0.00094510
-0.00097107
-0.00099539
-0.00102138
-0.00105152
-0.00108612
-0.00112328
-0.00115991
-0.00119316
-0.00122166
-0.00124607
-0.00126893
-0.00129357
-0.00132250
-0.00135612
-0.00139260
-0.00142885
-0.00146193
-0.00149027
-0.00151427
-0.00153627
-0.00155961
-0.00158697
-0.00161905
-0.00165421
-0.00168939
-0.00172151
-0.00174874
-0.00177122
-0.00179108
-0.00181156
-0.00183541
-0.00186342
-0.00189409
-0.00192439
-0.00195126
-0.00197283
-0.00198917
-0.00200234
-0.00201562
-0.00203197
-0.00205254
-0.00207611
-0.00209979
-0.00212039
-0.00213569
-0.00214531
-0.00215092
-0.00215565
-0.00216266
-0.00217359
-0.00218778
-0.00220266
-0.00221501
-0.00222228
-0.00222361
-0.00222019
-0.00221493
-0.00221114
-0.00221095
-0.00221425
-0.00221880
-0.00222144
-0.00221954
-0.00221208
-0.00220011
-0.00218640
-0.00217429
-0.00216603
-0.00216163
-0.00215895
-0.00215481
-0.00214642
-0.00213248
-0.00211378
-0.00209293
-0.00207329
-0.00205732
-0.00204533
-0.00203539
-0.00202441
-0.00200948
-0.00198908
-0.00196366
-0.00193558
-0.00190818
-0.00188419
-0.00186438
-0.00184718
-0.00182962
-0.00180873
-0.00178276
-0.00175198
-0.00171862
-0.00168603
-0.00165720
-0.00163322
-0.00161285
-0.00159319
-0.00157118
-0.00154489
-0.00151437
-0.00148170
-0.00145012
-0.00142251
-0.00139982
-0.00138067
-0.00136214
-0.00134119
-0.00131601
-0.00128673
-0.00125549
-0.00122560
-0.00119999
-0.00117974
-0.00116354
-0.00114848
-0.00113149
-0.00111065
-0.00108601
-0.00105964
-0.00103482
-0.00101445
-0.00099959
-0.00098893
-0.00097955
-0.00096839
-0.00095352
-0.00093500
-0.00091485
-0.00089634
-0.00088234
-0.00087387
-0.00086961
-0.00086665
-0.00086190
-0.00085341
-0.00084115
-0.00082713
-0.00081460
-0.00080644
-0.00080368
-0.00080498
-0.00080745
-0.00080800
-0.00080463
-0.00079723
-0.00078772
-0.00077934
-0.00077517
-0.00077656
-0.00078250
-0.00079019
-0.00079645
-0.00079901
-0.00079742
-0.00079334
-0.00078986
-0.00079012
-0.00079569
-0.00080575
-0.00081767
-0.00082827
-0.00083526
-0.00083814
-0.00083849
-0.00083938
-0.00084395
-0.00085381
-0.00086821
-0.00088451
-0.00089953
-0.00091094
-0.00091822
-0.00092289
-0.00092803
-0.00093683
-0.00095105
-0.00097008
-0.00099139
-0.00101179
-0.00102882
-0.00104176
-0.00105195
-0.00106231
-0.00107606
-0.00109501
-0.00111869
-0.00114460
-0.00116959
-0.00119120
-0.00120870
-0.00122349
-0.00123852
-0.00125696
-0.00128057
-0.00130874
-0.00133892
-0.00136789
-0.00139320
-0.00141411
-0.00143201
-0.00144982
-0.00147068
-0.00149627
-0.00152592
-0.00155704
-0.00158650
-0.00161194
-0.00163280
-0.00165061
-0.00166839
-0.00168924
-0.00171474
-0.00174410
-0.00177469
-0.00180334
-0.00182774
-0.00184738
-0.00186383
-0.00188015
-0.00189952
-0.00192358
-0.00195158
-0.00198088
-0.00200828
-0.00203141
-0.00204968
-0.00206463
-0.00207928
-0.00209681
-0.00211887
-0.00214479
-0.00217196
-0.00219723
-0.00221824
-0.00223446
-0.00224744
-0.00226025
-0.00227596
-0.00229604
-0.00231960
-0.00234395
-0.00236600
-0.00238365
-0.00239669
-0.00240698
-0.00241768
-0.00243182
-0.00245065
-0.00247307
-0.00249628
-0.00251717
-0.00253364
-0.00254551
-0.00255464
-0.00256423
-0.00257720
-0.00259470
-0.00261545
-0.00263656
-0.00265483
-0.00266820
-0.00267656
-0.00268188
-0.00268737
-0.00269588
-0.00270835
-0.00272342
-0.00273818
-0.00274962
-0.00275591
-0.00275717
-0.00275553
-0.00275422
-0.00275594
-0.00276143
-0.00276910
-0.00277595
-0.00277906
-0.00277689
-0.00276994
-0.00276067
-0.00275240
-0.00274761
-0.00274663
-0.00274754
-0.00274722
-0.00274281
-0.00273294
-0.00271830
-0.00270147
-0.00268570
-0.00267323
-0.00266402
-0.00265592
-0.00264583
-0.00263120
-0.00261111
-0.00258677
-0.00256107
-0.00253721
-0.00251707
-0.00250014
-0.00248395
-0.00246542
-0.00244224
-0.00241390
-0.00238196
-0.00234945
-0.00231949
-0.00229367
-0.00227121
-0.00224949
-0.00222540
-0.00219677
-0.00216327
-0.00212665
-0.00209004
-0.00205649
-0.00202739
-0.00200175
-0.00197681
-0.00194946
-0.00191763
-0.00188114
-0.00184190
-0.00180307
-0.00176751
-0.00173618
-0.00170769
-0.00167912
-0.00164740
-0.00161075
-0.00156934
-0.00152536
-0.00148207
-0.00144215
-0.00140629
-0.00137283
-0.00133875
-0.00130111
-0.00125837
-0.00121101
-0.00116145
-0.00111295
-0.00106799
-0.00102694
-0.00098793
-0.00094791
-0.00090414
-0.00085536
-0.00080236
-0.00074778
-0.00069489
-0.00064597
-0.00060106
-0.00055805
-0.00051387
-0.00046596
-0.00041337
-0.00035730
-0.00030060
-0.00024650
-0.00019684
-0.00015114
-0.00010693
-0.00006116
-0.00001168
0.00004175
0.00009729
0.00015178
0.00020228
0.00024767
0.00028922
0.00032978
0.00037240
0.00041890
0.00046919
0.00052115
0.00057155
0.00061767
0.00065876
0.00069641
0.00073361
0.00077331
0.00081707
0.00086444
0.00091303
0.00095953
0.00100145
0.00103841
0.00107226
0.00110600
0.00114230
0.00118229
0.00122502
0.00126777
0.00130731
0.00134162
0.00137098
0.00139772
0.00142497
0.00145521
0.00148918
0.00152553
0.00156130
0.00159336
0.00162006
0.00164214
0.00166219
0.00168335
0.00170788
0.00173624
0.00176683
0.00179661
0.00182258
0.00184343
0.00186018
0.00187562
0.00189282
0.00191386
0.00193890
0.00196603
0.00199206
0.00201400
0.00203062
0.00204310
0.00205427
0.00206720
0.00208382
0.00210406
0.00212582
0.00214584
0.00216130
0.00217136
0.00217752
0.00218270
0.00218979
0.00220030
0.00221369
0.00222752
0.00223848
0.00224420
0.00224445
0.00224122
0.00223765
0.00223651
0.00223906
0.00224446
0.00225008
0.00225268
0.00225014
0.00224255
0.00223211
0.00222196
0.00221473
0.00221142
0.00221097
0.00221059
0.00220706
0.00219842
0.00218508
0.00216947
0.00215480
0.00214354
0.00213645
0.00213213
0.00212765
0.00211992
0.00210746
0.00209115
0.00207367
0.00205813
0.00204663
0.00203937
0.00203449
0.00202884
0.00201955
0.00200559
0.00198830
0.00197059
0.00195550
0.00194488
0.00193862
0.00193463
0.00192968
0.00192100
0.00190774
0.00189138
0.00187489
0.00186127
0.00185227
0.00184764
0.00184513
0.00184150
0.00183412
0.00182242
0.00180813
0.00179426
0.00178366
0.00177771
0.00177576
0.00177523
0.00177285
0.00176627
0.00175537
0.00174220
0.00172991
0.00172120
0.00171722
0.00171705
0.00171798
0.00171677
0.00171127
0.00170157
0.00168986
0.00167928
0.00167242
0.00167025
0.00167167
0.00167386
0.00167350
0.00166850
0.00165903
0.00164741
0.00163675
0.00162956
0.00162670
0.00162690
0.00162729
0.00162463
0.00161709
0.00160513
0.00159126
0.00157860
0.00156950
0.00156454
0.00156220
0.00155948
0.00155329
0.00154212
0.00152684
0.00151013
0.00149508
0.00148379
0.00147651
0.00147143
0.00146545
0.00145567
0.00144098
0.00142261
0.00140340
0.00138640
0.00137360
0.00136505
0.00135877
0.00135159
0.00134066
0.00132499
0.00130593
0.00128639
0.00126938
0.00125670
0.00124816
0.00124161
0.00123383
0.00122217
0.00120597
0.00118686
0.00116788
0.00115197
0.00114073
0.00113370
0.00112851
0.00112183
0.00111108
0.00109578
0.00107770
0.00105994
0.00104546
0.00103585
0.00103073
0.00102774
0.00102359
0.00101569
0.00100348
0.00098868
0.00097435
0.00096341
0.00095744
0.00095594
0.00095650
0.00095582
0.00095142
0.00094298
0.00093241
0.00092277
0.00091678
0.00091570
0.00091870
0.00092313
0.00092574
0.00092438
0.00091916
0.00091232
0.00090704
0.00090592
0.00090993
0.00091797
0.00092722
0.00093440
0.00093745
0.00093657
0.00093403
0.00093299
0.00093614
0.00094459
0.00095746
0.00097207
0.00098509
0.00099416
0.00099913
0.00100203
0.00100597
0.00101372
0.00102656
0.00104372
0.00106262
0.00107997
0.00109346
0.00110299
0.00111060
0.00111940
0.00113208
0.00114978
0.00117158
0.00119476
0.00121605
0.00123325
0.00124647
0.00125790
0.00127070
0.00128750
0.00130934
0.00133519
0.00136230
0.00138738
0.00140825
0.00142497
0.00143968
0.00145552
0.00147518
0.00149981
0.00152852
0.00155864
0.00158685
0.00161090
0.00163076
0.00164857
0.00166743
0.00168997
0.00171723
0.00174817
0.00178004
0.00180959
0.00183472
0.00185562
0.00187454
0.00189463
0.00191847
0.00194702
0.00197918
0.00201213
0.00204257
0.00206833
0.00208946
0.00210813
0.00212746
0.00215013
0.00217724
0.00220786
0.00223923
0.00226798
0.00229171
0.00231017
0.00232531
0.00234022
0.00235769
0.00237908
0.00240374
0.00242916
0.00245206
0.00247002
0.00248278
0.00249227
0.00250157
0.00251348
0.00252934
0.00254846
0.00256831
0.00258562
0.00259802
0.00260529
0.00260936
0.00261331
0.00261991
0.00263045
0.00264420
0.00265864
0.00267050
0.00267743
0.00267921
0.00267782
0.00267631
0.00267747
0.00268262
0.00269105
0.00270024
0.00270690
0.00270858
0.00270496
0.00269794
0.00269066
0.00268601
0.00268555
0.00268885
0.00269357
0.00269639
0.00269463
0.00268762
0.00267699
0.00266577
0.00265690
0.00265205
0.00265088
0.00265110
0.00264943
0.00264316
0.00263157
0.00261625
0.00260018
0.00258632
0.00257647
0.00257044
0.00256610
0.00256020
0.00254994
0.00253438
0.00251487
0.00249431
0.00247574
0.00246112
0.00245053
0.00244204
0.00243245
0.00241871
0.00239948
0.00237576
0.00235036
0.00232649
0.00230647
0.00229083
0.00227805
0.00226513
0.00224891
0.00222772
0.00220220
0.00217488
0.00214889
0.00212658
0.00210859
0.00209352
0.00207839
0.00205999
0.00203645
0.00200819
0.00197763
0.00194795
0.00192176
0.00190006
0.00188181
0.00186424
0.00184408
0.00181926
0.00178996
0.00175843
0.00172780
0.00170068
0.00167814
0.00165920
0.00164121
0.00162092
0.00159618
0.00156701
0.00153556
0.00150493
0.00147776
0.00145518
0.00143620
0.00141816
0.00139780
0.00137302
0.00134393
0.00131275
0.00128262
0.00125620
0.00123452
0.00121653
0.00119945
0.00118000
0.00115601
0.00112759
0.00109697
0.00106734
0.00104145
0.00102051
0.00100369
0.00098835
0.00097113
0.00094955
0.00092325
0.00089411
0.00086519
0.00083937
0.00081818
0.00080112
0.00078580
0.00076895
0.00074801
0.00072245
0.00069400
0.00066569
0.00064044
0.00061986
0.00060363
0.00058949
0.00057420
0.00055505
0.00053133
0.00050459
0.00047784
0.00045408
0.00043508
0.00042066
0.00040869
0.00039592
0.00037955
0.00035863
0.00033448
0.00031002
0.00028832
0.00027144
0.00025958
0.00025089
0.00024222
0.00023052
0.00021443
0.00019493
0.00017478
0.00015713
0.00014425
0.00013665
0.00013279
0.00012968
0.00012413
0.00011443
0.00010117
0.00008686
0.00007465
0.00006696
0.00006452
0.00006600
0.00006846
0.00006858
0.00006430
0.00005581
0.00004536
0.00003608
0.00003059
0.00002998
0.00003337
0.00003808
0.00004084
0.00003931
0.00003335
0.00002501
0.00001741
0.00001338
0.00001435
0.00001976
0.00002723
0.00003344
0.00003581
0.00003379
0.00002913
0.00002488
0.00002399
0.00002807
0.00003677
0.00004781
0.00005791
0.00006442
0.00006662
0.00006613
0.00006590
0.00006891
0.00007685
0.00008945
0.00010449
0.00011869
0.00012924
0.00013524
0.00013809
0.00014075
0.00014635
0.00015698
0.00017284
0.00019213
0.00021168
0.00022832
0.00024047
0.00024888
0.00025617
0.00026547
0.00027916
0.00029788
0.00032025
0.00034329
0.00036379
0.00037987
0.00039190
0.00040221
0.00041390
0.00042944
0.00044967
0.00047336
0.00049766
0.00051933
0.00053640
0.00054920
0.00056006
0.00057216
0.00058809
0.00060890
0.00063359
0.00065946
0.00068316
0.00070235
0.00071681
0.00072854
0.00074069
0.00075622
0.00077679
0.00080211
0.00082993
0.00085694
0.00088026
0.00089887
0.00091402
0.00092854
0.00094548
0.00096685
0.00099279
0.00102145
0.00104964
0.00107426
0.00109383
0.00110920
0.00112296
0.00113827
0.00115750
0.00118138
0.00120864
0.00123641
0.00126143
0.00128169
0.00129744
0.00131100
0.00132557
0.00134381
0.00136686
0.00139381
0.00142195
0.00144787
0.00146898
0.00148478
0.00149701
0.00150871
0.00152285
0.00154113
0.00156338
0.00158748
0.00161020
0.00162861
0.00164159
0.00165031
0.00165758
0.00166656
0.00167943
0.00169656
0.00171627
0.00173547
0.00175095
0.00176101
0.00176622
0.00176911
0.00177286
0.00177999
0.00179141
0.00180600
0.00182097
0.00183298
0.00183976
0.00184114
0.00183915
0.00183691
0.00183732
0.00184187
0.00185010
0.00185968
0.00186730
0.00187015
0.00186739
0.00186042
0.00185221
0.00184588
0.00184355
0.00184550
0.00185004
0.00185404
0.00185434
0.00184925
0.00183942
0.00182741
0.00181643
0.00180906
0.00180626
0.00180695
0.00180839
0.00180721
0.00180102
0.00178953
0.00177465
0.00175948
0.00174703
0.00173904
0.00173538
0.00173395
0.00173146
0.00172478
0.00171247
0.00169534
0.00167605
0.00165785
0.00164336
0.00163364
0.00162775
0.00162300
0.00161600
0.00160420
0.00158711
0.00156644
0.00154523
0.00152656
0.00151237
0.00150275
0.00149575
0.00148815
0.00147686
0.00146042
0.00143967
0.00141724
0.00139633
0.00137944
0.00136747
0.00135937
0.00135237
0.00134315
0.00132934
0.00131071
0.00128919
0.00126791
0.00124984
0.00123669
0.00122826
0.00122243
0.00121588
0.00120553
0.00119000
0.00117017
0.00114872
0.00112880
0.00111277
0.00110132
0.00109312
0.00108524
0.00107436
0.00105835
0.00103729
0.00101332
0.00098959
0.00096890
0.00095261
0.00094009
0.00092885
0.00091555
0.00089747
0.00087385
0.00084620
0.00081743
0.00079067
0.00076796
0.00074957
0.00073378
0.00071748
0.00069755
0.00067237
0.00064261
0.00061082
0.00058025
0.00055353
0.00053174
0.00051402
0.00049772
0.00047947
0.00045662
0.00042859
0.00039703
0.00036498
0.00033550
0.00031053
0.00029017
0.00027257
0.00025458
0.00023313
0.00020677
0.00017632
0.00014440
0.00011423
0.00008831
0.00006756
0.00005091
0.00003559
0.00001827
-0.00000346
-0.00002994
-0.00005930
-0.00008847
-0.00011444
-0.00013547
-0.00015171
-0.00016527
-0.00017945
-0.00019727
-0.00022006
-0.00024681
-0.00027480
-0.00030083
-0.00032248
-0.00033899
-0.00035162
-0.00036326
-0.00037722
-0.00039565
-0.00041849
-0.00044359
-0.00046780
-0.00048828
-0.00050360
-0.00051425
-0.00052259
-0.00053198
-0.00054534
-0.00056371
-0.00058586
-0.00060897
-0.00062989
-0.00064640
-0.00065797
-0.00066610
-0.00067380
-0.00068436
-0.00069981
-0.00071988
-0.00074230
-0.00076388
-0.00078183
-0.00079475
-0.00080318
-0.00080953
-0.00081716
-0.00082888
-0.00084558
-0.00086587
-0.00088684
-0.00090539
-0.00091944
-0.00092873
-0.00093495
-0.00094125
-0.00095075
-0.00096507
-0.00098357
-0.00100370
-0.00102225
-0.00103668
-0.00104602
-0.00105131
-0.00105532
-0.00106142
-0.00107202
-0.00108738
-0.00110557
-0.00112345
-0.00113799
-0.00114741
-0.00115184
-0.00115335
-0.00115520
-0.00116048
-0.00117054
-0.00118447
-0.00119956
-0.00121266
-0.00122145
-0.00122532
-0.00122565
-0.00122539
-0.00122778
-0.00123481
-0.00124621
-0.00125967
-0.00127203
-0.00128068
-0.00128449
-0.00128439
-0.00128301
-0.00128370
-0.00128892
-0.00129908
-0.00131237
-0.00132573
-0.00133614
-0.00134176
-0.00134259
-0.00134060
-0.00133900
-0.00134082
-0.00134744
-0.00135797
-0.00136970
-0.00137946
-0.00138485
-0.00138517
-0.00138175
-0.00137748
-0.00137562
-0.00137820
-0.00138503
-0.00139385
-0.00140153
-0.00140538
-0.00140419
-0.00139873
-0.00139155
-0.00138603
-0.00138484
-0.00138860
-0.00139570
-0.00140313
-0.00140780
-0.00140773
-0.00140281
-0.00139489
-0.00138716
-0.00138271
-0.00138305
-0.00138732
-0.00139285
-0.00139647
-0.00139580
-0.00139018
-0.00138097
-0.00137111
-0.00136383
-0.00136112
-0.00136274
-0.00136640
-0.00136901
-0.00136792
-0.00136204
-0.00135226
-0.00134124
-0.00133234
-0.00132807
-0.00132884
-0.00133287
-0.00133711
-0.00133864
-0.00133577
-0.00132877
-0.00131978
-0.00131207
-0.00130850
-0.00131014
-0.00131571
-0.00132237
-0.00132699
-0.00132745
-0.00132344
-0.00131662
-0.00131009
-0.00130696
-0.00130881
-0.00131494
-0.00132273
-0.00132901
-0.00133136
-0.00132910
-0.00132356
-0.00131770
-0.00131481
-0.00131698
-0.00132408
-0.00133390
-0.00134326
-0.00134937
-0.00135086
-0.00134840
-0.00134447
-0.00134239
-0.00134469
-0.00135184
-0.00136206
-0.00137229
-0.00137958
-0.00138224
-0.00138053
-0.00137662
-0.00137380
-0.00137492
-0.00138099
-0.00139071
-0.00140124
-0.00140949
-0.00141335
-0.00141257
-0.00140889
-0.00140545
-0.00140536
-0.00141018
-0.00141918
-0.00142977
-0.00143878
-0.00144379
-0.00144402
-0.00144070
-0.00143666
-0.00143519
-0.00143840
-0.00144616
-0.00145622
-0.00146543
-0.00147110
-0.00147205
-0.00146918
-0.00146514
-0.00146326
-0.00146590
-0.00147330
-0.00148351
-0.00149344
-0.00150026
-0.00150255
-0.00150089
-0.00149772
-0.00149635
-0.00149933
-0.00150717
-0.00151812
-0.00152910
-0.00153713
-0.00154044
-0.00153916
-0.00153540
-0.00153242
-0.00153316
-0.00153880
-0.00154817
-0.00155848
-0.00156663
-0.00157054
-0.00156995
-0.00156664
-0.00156375
-0.00156438
-0.00157006
-0.00158002
-0.00159167
-0.00160189
-0.00160839
-0.00161060
-0.00161002
-0.00160963
-0.00161260
-0.00162067
-0.00163331
-0.00164803
-0.00166168
-0.00167182
-0.00167763
-0.00168033
-0.00168278
-0.00168822
-0.00169871
-0.00171407
-0.00173208
-0.00174957
-0.00176384
-0.00177370
-0.00177997
-0.00178530
-0.00179298
-0.00180538
-0.00182274
-0.00184307
-0.00186326
-0.00188046
-0.00189323
-0.00190217
-0.00190972
-0.00191918
-0.00193301
-0.00195159
-0.00197307
-0.00199436
-0.00201257
-0.00202616
-0.00203555
-0.00204308
-0.00205199
-0.00206486
-0.00208224
-0.00210240
-0.00212233
-0.00213906
-0.00215095
-0.00215830
-0.00216334
-0.00216931
-0.00217888
-0.00219282
-0.00220961
-0.00222633
-0.00224004
-0.00224906
-0.00225361
-0.00225589
-0.00225911
-0.00226597
-0.00227726
-0.00229147
-0.00230563
-0.00231671
-0.00232283
-0.00232403
-0.00232233
-0.00232094
-0.00232274
-0.00232879
-0.00233781
-0.00234695
-0.00235314
-0.00235439
-0.00235062
-0.00234374
-0.00233688
-0.00233291
-0.00233289
-0.00233557
-0.00233812
-0.00233751
-0.00233176
-0.00232079
-0.00230648
-0.00229206
-0.00228064
-0.00227367
-0.00227028
-0.00226778
-0.00226301
-0.00225373
-0.00223948
-0.00222189
-0.00220406
-0.00218912
-0.00217869
-0.00217202
-0.00216651
-0.00215905
-0.00214734
-0.00213086
-0.00211115
-0.00209122
-0.00207420
-0.00206170
-0.00205302
-0.00204557
-0.00203625
-0.00202278
-0.00200460
-0.00198320
-0.00196156
-0.00194283
-0.00192874
-0.00191872
-0.00191026
-0.00190026
-0.00188634
-0.00186784
-0.00184615
-0.00182420
-0.00180515
-0.00179078
-0.00178054
-0.00177193
-0.00176181
-0.00174772
-0.00172899
-0.00170699
-0.00168468
-0.00166525
-0.00165040
-0.00163954
-0.00163017
-0.00161915
-0.00160412
-0.00158445
-0.00156155
-0.00153839
-0.00151817
-0.00150266
-0.00149133
-0.00148169
-0.00147058
-0.00145559
-0.00143603
-0.00141326
-0.00139020
-0.00137001
-0.00135445
-0.00134298
-0.00133311
-0.00132174
-0.00130656
-0.00128701
-0.00126459
-0.00124230
-0.00122323
-0.00120890
-0.00119850
-0.00118941
-0.00117853
-0.00116371
-0.00114468
-0.00112321
-0.00110240
-0.00108504
-0.00107212
-0.00106230
-0.00105274
-0.00104050
-0.00102385
-0.00100304
-0.00098025
-0.00095871
-0.00094109
-0.00092810
-0.00091812
-0.00090816
-0.00089531
-0.00087801
-0.00085674
-0.00083387
-0.00081273
-0.00079596
-0.00078416
-0.00077566
-0.00076746
-0.00075666
-0.00074170
-0.00072301
-0.00070297
-0.00068485
-0.00067119
-0.00066249
-0.00065699
-0.00065169
-0.00064382
-0.00063209
-0.00061727
-0.00060196
-0.00058938
-0.00058168
-0.00057876
-0.00057843
-0.00057759
-0.00057373
-0.00056601
-0.00055570
-0.00054567
-0.00053902
-0.00053741
-0.00054015
-0.00054469
-0.00054796
-0.00054786
-0.00054410
-0.00053848
-0.00053408
-0.00053379
-0.00053868
-0.00054752
-0.00055749
-0.00056561
-0.00057013
-0.00057126
-0.00057118
-0.00057308
-0.00057952
-0.00059109
-0.00060606
-0.00062141
-0.00063431
-0.00064335
-0.00064923
-0.00065451
-0.00066231
-0.00067468
-0.00069145
-0.00071032
-0.00072815
-0.00074238
-0.00075206
-0.00075831
-0.00076394
-0.00077214
-0.00078483
-0.00080164
-0.00082022
-0.00083748
-0.00085105
-0.00086029
-0.00086666
-0.00087313
-0.00088281
-0.00089726
-0.00091571
-0.00093559
-0.00095390
-0.00096860
-0.00097956
-0.00098864
-0.00099896
-0.00101329
-0.00103254
-0.00105529
-0.00107861
-0.00109957
-0.00111652
-0.00112981
-0.00114174
-0.00115549
-0.00117344
-0.00119584
-0.00122071
-0.00124502
-0.00126616
-0.00128316
-0.00129708
-0.00131071
-0.00132714
-0.00134817
-0.00137328
-0.00140000
-0.00142527
-0.00144681
-0.00146416
-0.00147893
-0.00149414
-0.00151265
-0.00153560
-0.00156180
-0.00158840
-0.00161246
-0.00163221
-0.00164789
-0.00166170
-0.00167683
-0.00169570
-0.00171863
-0.00174367
-0.00176773
-0.00178818
-0.00180397
-0.00181618
-0.00182757
-0.00184118
-0.00185869
-0.00187947
-0.00190101
-0.00192032
-0.00193540
-0.00194620
-0.00195474
-0.00196418
-0.00197716
-0.00199432
-0.00201401
-0.00203324
-0.00204915
-0.00206035
-0.00206750
-0.00207313
-0.00208044
-0.00209155
-0.00210637
-0.00212269
-0.00213746
-0.00214828
-0.00215453
-0.00215769
-0.00216076
-0.00216662
-0.00217651
-0.00218927
-0.00220213
-0.00221222
-0.00221789
-0.00221954
-0.00221954
-0.00222104
-0.00222625
-0.00223518
-0.00224572
-0.00225484
-0.00226018
-0.00226112
-0.00225915
-0.00225723
-0.00225831
-0.00226365
-0.00227217
-0.00228109
-0.00228749
-0.00228963
-0.00228777
-0.00228417
-0.00228195
-0.00228348
-0.00228893
-0.00229626
-0.00230244
-0.00230498
-0.00230315
-0.00229834
-0.00229345
-0.00229134
-0.00229318
-0.00229779
-0.00230240
-0.00230414
-0.00230145
-0.00229482
-0.00228662
-0.00228002
-0.00227718
-0.00227810
-0.00228064
-0.00228183
-0.00227931
-0.00227251
-0.00226292
-0.00225353
-0.00224720
-0.00224506
-0.00224587
-0.00224683
-0.00224505
-0.00223896
-0.00222901
-0.00221752
-0.00220761
-0.00220143
-0.00219896
-0.00219806
-0.00219574
-0.00218960
-0.00217899
-0.00216537
-0.00215166
-0.00214074
-0.00213382
-0.00212975
-0.00212577
-0.00211899
-0.00210779
-0.00209261
-0.00207579
-0.00206046
-0.00204877
-0.00204064
-0.00203386
-0.00202546
-0.00201318
-0.00199662
-0.00197750
-0.00195882
-0.00194329
-0.00193170
-0.00192248
-0.00191272
-0.00189969
-0.00188215
-0.00186101
-0.00183897
-0.00181909
-0.00180305
-0.00179015
-0.00177781
-0.00176305
-0.00174401
-0.00172083
-0.00169567
-0.00167165
-0.00165109
-0.00163412
-0.00161871
-0.00160186
-0.00158120
-0.00155611
-0.00152806
-0.00150004
-0.00147490
-0.00145375
-0.00143531
-0.00141674
-0.00139520
-0.00136928
-0.00133968
-0.00130897
-0.00128038
-0.00125601
-0.00123566
-0.00121706
-0.00119716
-0.00117374
-0.00114641
-0.00111685
-0.00108809
-0.00106286
-0.00104202
-0.00102411
-0.00100621
-0.00098558
-0.00096099
-0.00093339
-0.00090545
-0.00088018
-0.00085914
-0.00084152
-0.00082471
-0.00080572
-0.00078274
-0.00075597
-0.00072760
-0.00070073
-0.00067759
-0.00065821
-0.00064042
-0.00062121
-0.00059821
-0.00057088
-0.00054080
-0.00051097
-0.00048422
-0.00046155
-0.00044161
-0.00042153
-0.00039857
-0.00037143
-0.00034094
-0.00030973
-0.00028083
-0.00025594
-0.00023446
-0.00021388
-0.00019126
-0.00016474
-0.00013448
-0.00010262
-0.00007228
-0.00004572
-0.00002305
-0.00000213
0.00002005
0.00004586
0.00007589
0.00010860
0.00014103
0.00017034
0.00019549
0.00021779
0.00024004
0.00026501
0.00029401
0.00032628
0.00035926
0.00038988
0.00041638
0.00043933
0.00046122
0.00048501
0.00051261
0.00054393
0.00057688
0.00060838
0.00063611
0.00065984
0.00068155
0.00070424
0.00073034
0.00076051
0.00079327
0.00082570
0.00085501
0.00088020
0.00090263
0.00092514
0.00095056
0.00098031
0.00101373
0.00104829
0.00108094
0.00110981
0.00113538
0.00116009
0.00118697
0.00121814
0.00125383
0.00129220
0.00133018
0.00136516
0.00139648
0.00142579
0.00145601
0.00148975
0.00152804
0.00156979
0.00161223
0.00165231
0.00168838
0.00172110
0.00175300
0.00178698
0.00182486
0.00186645
0.00190956
0.00195108
0.00198880
0.00202269
0.00205487
0.00208836
0.00212544
0.00216663
0.00221032
0.00225354
0.00229345
0.00232902
0.00236155
0.00239386
0.00242874
0.00246763
0.00250993
0.00255315
0.00259411
0.00263064
0.00266282
0.00269284
0.00272373
0.00275782
0.00279566
0.00283561
0.00287465
0.00290998
0.00294071
0.00296829
0.00299562
0.00302545
0.00305904
0.00309556
0.00313239
0.00316645
0.00319593
0.00322133
0.00324507
0.00327018
0.00329872
0.00333086
0.00336469
0.00339712
0.00342550
0.00344916
0.00346972
0.00349012
0.00351303
0.00353962
0.00356896
0.00359833
0.00362461
0.00364598
0.00366294
0.00367795
0.00369400
0.00371313
0.00373547
0.00375912
0.00378100
0.00379853
0.00381118
0.00382068
0.00383001
0.00384183
0.00385719
0.00387502
0.00389255
0.00390671
0.00391586
0.00392072
0.00392387
0.00392833
0.00393605
0.00394697
0.00395903
0.00396914
0.00397482
0.00397567
0.00397353
0.00397141
0.00397195
0.00397619
0.00398304
0.00398971
0.00399311
0.00399151
0.00398555
0.00397775
0.00397116
0.00396788
0.00396805
0.00396981
0.00397003
0.00396598
0.00395685
0.00394414
0.00393079
0.00391968
0.00391224
0.00390789
0.00390415
0.00389785
0.00388684
0.00387122
0.00385319
0.00383587
0.00382173
0.00381153
0.00380388
0.00379586
0.00378449
0.00376839
0.00374851
0.00372757
0.00370857
0.00369339
0.00368193
0.00367203
0.00366053
0.00364496
0.00362493
0.00360232
0.00358014
0.00356097
0.00354575
0.00353333
0.00352086
0.00350530
0.00348505
0.00346093
0.00343556
0.00341195
0.00339198
0.00337553
0.00336047
0.00334365
0.00332256
0.00329680
0.00326821
0.00323981
0.00321418
0.00319228
0.00317294
0.00315333
0.00313042
0.00310260
0.00307064
0.00303713
0.00300507
0.00297643
0.00295123
0.00292749
0.00290210
0.00287243
0.00283788
0.00280009
0.00276206
0.00272653
0.00269482
0.00266612
0.00263785
0.00260691
0.00257149
0.00253204
0.00249102
0.00245148
0.00241555
0.00238349
0.00235348
0.00232243
0.00228763
0.00224826
0.00220583
0.00216330
0.00212350
0.00208785
0.00205571
0.00202458
0.00199128
0.00195369
0.00191195
0.00186829
0.00182576
0.00178674
0.00175187
0.00171971
0.00168731
0.00165175
0.00161175
0.00156838
0.00152441
0.00148278
0.00144526
0.00141156
0.00137945
0.00134579
0.00130829
0.00126679
0.00122334
0.00118101
0.00114235
0.00110827
0.00107756
0.00104738
0.00101466
0.00097784
0.00093771
0.00089693
0.00085855
0.00082460
0.00079521
0.00076843
0.00074115
0.00071069
0.00067636
0.00063975
0.00060382
0.00057139
0.00054384
0.00052051
0.00049885
0.00047566
0.00044869
0.00041792
0.00038544
0.00035431
0.00032697
0.00030413
0.00028442
0.00026490
0.00024255
0.00021591
0.00018587
0.00015510
0.00012652
0.00010199
0.00008135
0.00006248
0.00004220
0.00001800
-0.00001051
-0.00004148
-0.00007184
-0.00009887
-0.00012139
-0.00014031
-0.00015831
-0.00017858
-0.00020307
-0.00023141
-0.00026123
-0.00028944
-0.00031370
-0.00033347
-0.00035025
-0.00036700
-0.00038659
-0.00041024
-0.00043682
-0.00046357
-0.00048752
-0.00050688
-0.00052181
-0.00053451
-0.00054816
-0.00056532
-0.00058648
-0.00060985
-0.00063246
-0.00065161
-0.00066614
-0.00067696
-0.00068676
-0.00069869
-0.00071463
-0.00073416
-0.00075484
-0.00077352
-0.00078788
-0.00079736
-0.00080349
-0.00080928
-0.00081768
-0.00083004
-0.00084532
-0.00086078
-0.00087343
-0.00088139
-0.00088476
-0.00088560
-0.00088705
-0.00089163
-0.00089980
-0.00090977
-0.00091855
-0.00092346
-0.00092342
-0.00091947
-0.00091436
-0.00091122
-0.00091180
-0.00091556
-0.00092002
-0.00092214
-0.00091983
-0.00091287
-0.00090307
-0.00089356
-0.00088714
-0.00088480
-0.00088517
-0.00088538
-0.00088260
-0.00087529
-0.00086398
-0.00085110
-0.00083987
-0.00083262
-0.00082948
-0.00082841
-0.00082637
-0.00082086
-0.00081102
-0.00079809
-0.00078494
-0.00077461
-0.00076870
-0.00076645
-0.00076526
-0.00076207
-0.00075480
-0.00074330
-0.00072947
-0.00071642
-0.00070678
-0.00070127
-0.00069829
-0.00069495
-0.00068853
-0.00067783
-0.00066376
-0.00064899
-0.00063664
-0.00062854
-0.00062422
-0.00062122
-0.00061646
-0.00060770
-0.00059459
-0.00057888
-0.00056363
-0.00055160
-0.00054367
-0.00053839
-0.00053287
-0.00052427
-0.00051121
-0.00049432
-0.00047614
-0.00045976
-0.00044718
-0.00043810
-0.00043024
-0.00042056
-0.00040681
-0.00038855
-0.00036746
-0.00034654
-0.00032859
-0.00031458
-0.00030311
-0.00029134
-0.00027644
-0.00025698
-0.00023359
-0.00020879
-0.00018573
-0.00016650
-0.00015094
-0.00013681
-0.00012110
-0.00010155
-0.00007767
-0.00005110
-0.00002489
-0.00000193
0.00001664
0.00003203
0.00004704
0.00006451
0.00008595
0.00011082
0.00013668
0.00016035
0.00017969
0.00019481
0.00020796
0.00022224
0.00024003
0.00026190
0.00028632
0.00031030
0.00033096
0.00034717
0.00036014
0.00037266
0.00038757
0.00040632
0.00042833
0.00045111
0.00047152
0.00048742
0.00049900
0.00050852
0.00051907
0.00053299
0.00055078
0.00057086
0.00059020
0.00060593
0.00061690
0.00062435
0.00063107
0.00063993
0.00065250
0.00066827
0.00068484
0.00069907
0.00070881
0.00071416
0.00071732
0.00072135
0.00072855
0.00073941
0.00075228
0.00076418
0.00077239
0.00077605
0.00077664
0.00077706
0.00078014
0.00078726
0.00079771
0.00080895
0.00081786
0.00082250
0.00082325
0.00082250
0.00082327
0.00082773
0.00083614
0.00084673
0.00085643
0.00086257
0.00086438
0.00086341
0.00086256
0.00086451
0.00087046
0.00087952
0.00088906
0.00089609
0.00089901
0.00089856
0.00089731
0.00089821
0.00090311
0.00091185
0.00092228
0.00093129
0.00093656
0.00093794
0.00093749
0.00093822
0.00094256
0.00095118
0.00096263
0.00097395
0.00098223
0.00098625
0.00098716
0.00098771
0.00099078
0.00099798
0.00100891
0.00102125
0.00103186
0.00103845
0.00104092
0.00104134
0.00104269
0.00104740
0.00105607
0.00106716
0.00107765
0.00108464
0.00108701
0.00108598
0.00108436
0.00108493
0.00108912
0.00109627
0.00110389
0.00110887
0.00110926
0.00110538
0.00109962
0.00109509
0.00109407
0.00109698
0.00110216
0.00110657
0.00110742
0.00110373
0.00109691
0.00108982
0.00108523
0.00108447
0.00108682
0.00108970
0.00109001
0.00108588
0.00107773
0.00106794
0.00105952
0.00105461
0.00105345
0.00105427
0.00105404
0.00105013
0.00104188
0.00103091
0.00102019
0.00101246
0.00100897
0.00100886
0.00100952
0.00100784
0.00100206
0.00099271
0.00098227
0.00097371
0.00096902
0.00096823
0.00096933
0.00096919
0.00096525
0.00095699
0.00094617
0.00093574
0.00092833
0.00092500
0.00092466
0.00092458
0.00092172
0.00091446
0.00090356
0.00089159
0.00088150
0.00087516
0.00087244
0.00087121
0.00086840
0.00086171
0.00085096
0.00083816
0.00082629
0.00081775
0.00081316
0.00081101
0.00080834
0.00080239
0.00079218
0.00077910
0.00076601
0.00075569
0.00074949
0.00074663
0.00074455
0.00074016
0.00073169
0.00071969
0.00070669
0.00069570
0.00068873
0.00068586
0.00068511
0.00068340
0.00067820
0.00066902
0.00065764
0.00064696
0.00063954
0.00063630
0.00063607
0.00063603
0.00063318
0.00062603
0.00061547
0.00060416
0.00059499
0.00058965
0.00058778
0.00058708
0.00058443
0.00057763
0.00056667
0.00055367
0.00054162
0.00053279
0.00052771
0.00052478
0.00052102
0.00051361
0.00050149
0.00048597
0.00046990
0.00045617
0.00044630
0.00043979
0.00043421
0.00042639
0.00041417
0.00039763
0.00037897
0.00036122
0.00034662
0.00033554
0.00032623
0.00031568
0.00030132
0.00028256
0.00026106
0.00023977
0.00022135
0.00020692
0.00019552
0.00018449
0.00017083
0.00015289
0.00013139
0.00010887
0.00008829
0.00007150
0.00005839
0.00004682
0.00003363
0.00001638
-0.00000522
-0.00002922
-0.00005257
-0.00007270
-0.00008875
-0.00010194
-0.00011508
-0.00013119
-0.00015170
-0.00017574
-0.00020067
-0.00022360
-0.00024274
-0.00025832
-0.00027253
-0.00028848
-0.00030847
-0.00033264
-0.00035892
-0.00038432
-0.00040644
-0.00042464
-0.00044043
-0.00045676
-0.00047642
-0.00050043
-0.00052743
-0.00055465
-0.00057942
-0.00060054
-0.00061893
-0.00063723
-0.00065848
-0.00068430
-0.00071397
-0.00074490
-0.00077409
-0.00079956
-0.00082134
-0.00084145
-0.00086298
-0.00088841
-0.00091811
-0.00095022
-0.00098170
-0.00101002
-0.00103429
-0.00105571
-0.00107711
-0.00110142
-0.00113004
-0.00116202
-0.00119466
-0.00122508
-0.00125159
-0.00127460
-0.00129640
-0.00132012
-0.00134787
-0.00137956
-0.00141295
-0.00144501
-0.00147342
-0.00149771
-0.00151949
-0.00154176
-0.00156724
-0.00159678
-0.00162890
-0.00166068
-0.00168936
-0.00171365
-0.00173436
-0.00175408
-0.00177585
-0.00180144
-0.00183030
-0.00185996
-0.00188746
-0.00191089
-0.00193027
-0.00194766
-0.00196614
-0.00198809
-0.00201378
-0.00204124
-0.00206746
-0.00208999
-0.00210806
-0.00212307
-0.00213788
-0.00215533
-0.00217654
-0.00220022
-0.00222355
-0.00224376
-0.00225947
-0.00227146
-0.00228230
-0.00229511
-0.00231172
-0.00233165
-0.00235243
-0.00237103
-0.00238534
-0.00239516
-0.00240233
-0.00240990
-0.00242046
-0.00243462
-0.00245070
-0.00246578
-0.00247728
-0.00248428
-0.00248795
-0.00249110
-0.00249658
-0.00250559
-0.00251699
-0.00252798
-0.00253577
-0.00253891
-0.00253806
-0.00253572
-0.00253494
-0.00253755
-0.00254310
-0.00254916
-0.00255278
-0.00255194
-0.00254657
-0.00253865
-0.00253128
-0.00252702
-0.00252641
-0.00252765
-0.00252782
-0.00252437
-0.00251645
-0.00250529
-0.00249373
-0.00248471
-0.00247958
-0.00247731
-0.00247513
-0.00247013
-0.00246066
-0.00244715
-0.00243196
-0.00241818
-0.00240783
-0.00240068
-0.00239441
-0.00238603
-0.00237340
-0.00235630
-0.00233659
-0.00231732
-0.00230097
-0.00228802
-0.00227665
-0.00226394
-0.00224746
-0.00222647
-0.00220242
-0.00217822
-0.00215674
-0.00213905
-0.00212384
-0.00210828
-0.00208955
-0.00206623
-0.00203898
-0.00201029
-0.00198330
-0.00195999
-0.00194002
-0.00192103
-0.00189998
-0.00187471
-0.00184500
-0.00181271
-0.00178083
-0.00175184
-0.00172616
-0.00170195
-0.00167631
-0.00164694
-0.00161331
-0.00157705
-0.00154113
-0.00150819
-0.00147897
-0.00145187
-0.00142404
-0.00139299
-0.00135790
-0.00132005
-0.00128230
-0.00124755
-0.00121706
-0.00118973
-0.00116282
-0.00113350
-0.00110029
-0.00106383
-0.00102665
-0.00099184
-0.00096127
-0.00093447
-0.00090899
-0.00088190
-0.00085133
-0.00081741
-0.00078227
-0.00074895
-0.00071962
-0.00069424
-0.00067065
-0.00064590
-0.00061790
-0.00058647
-0.00055352
-0.00052207
-0.00049449
-0.00047105
-0.00044979
-0.00042771
-0.00040238
-0.00037313
-0.00034144
-0.00031023
-0.00028220
-0.00025820
-0.00023676
-0.00021503
-0.00019049
-0.00016219
-0.00013132
-0.00010068
-0.00007317
-0.00005005
-0.00003022
-0.00001097
0.00001040
0.00003513
0.00006235
0.00008943
0.00011347
0.00013311
0.00014935
0.00016489
0.00018254
0.00020377
0.00022795
0.00025263
0.00027481
0.00029282
0.00030730
0.00032075
0.00033603
0.00035476
0.00037651
0.00039889
0.00041883
0.00043429
0.00044554
0.00045481
0.00046495
0.00047782
0.00049331
0.00050934
0.00052284
0.00053160
0.00053562
0.00053705
0.00053884
0.00054315
0.00055024
0.00055831
0.00056437
0.00056602
0.00056296
0.00055713
0.00055149
0.00054837
0.00054826
0.00054951
0.00054919
0.00054471
0.00053549
0.00052325
0.00051093
0.00050109
0.00049461
0.00049020
0.00048503
0.00047622
0.00046256
0.00044523
0.00042698
0.00041063
0.00039761
0.00038722
0.00037698
0.00036386
0.00034614
0.00032443
0.00030125
0.00027960
0.00026140
0.00024657
0.00023301
0.00021769
0.00019847
0.00017539
0.00015061
0.00012705
0.00010677
0.00008991
0.00007458
0.00005781
0.00003736
0.00001314
-0.00001279
-0.00003744
-0.00005859
-0.00007588
-0.00009104
-0.00010705
-0.00012645
-0.00014979
-0.00017537
-0.00020030
-0.00022207
-0.00023986
-0.00025497
-0.00027020
-0.00028838
-0.00031060
-0.00033556
-0.00036043
-0.00038243
-0.00040024
-0.00041464
-0.00042819
-0.00044394
-0.00046362
-0.00048664
-0.00051057
-0.00053247
-0.00055050
-0.00056483
-0.00057758
-0.00059179
-0.00060962
-0.00063105
-0.00065391
-0.00067520
-0.00069266
-0.00070589
-0.00071664
-0.00072789
-0.00074224
-0.00076026
-0.00078020
-0.00079909
-0.00081432
-0.00082498
-0.00083226
-0.00083900
-0.00084811
-0.00086087
-0.00087617
-0.00089127
-0.00090334
-0.00091098
-0.00091486
-0.00091752
-0.00092196
-0.00092991
-0.00094077
-0.00095204
-0.00096081
-0.00096522
-0.00096543
-0.00096359
-0.00096277
-0.00096523
-0.00097103
-0.00097808
-0.00098342
-0.00098481
-0.00098185
-0.00097627
-0.00097105
-0.00096882
-0.00097023
-0.00097364
-0.00097612
-0.00097509
-0.00096955
-0.00096061
-0.00095107
-0.00094389
-0.00094051
-0.00093998
-0.00093966
-0.00093674
-0.00092977
-0.00091937
-0.00090805
-0.00089887
-0.00089373
-0.00089222
-0.00089196
-0.00089002
-0.00088450
-0.00087544
-0.00086493
-0.00085600
-0.00085086
-0.00084955
-0.00084994
-0.00084907
-0.00084469
-0.00083643
-0.00082598
-0.00081632
-0.00080998
-0.00080756
-0.00080733
-0.00080638
-0.00080221
-0.00079394
-0.00078284
-0.00077175
-0.00076356
-0.00075947
-0.00075832
-0.00075734
-0.00075370
-0.00074595
-0.00073475
-0.00072263
-0.00071263
-0.00070649
-0.00070361
-0.00070150
-0.00069721
-0.00068893
-0.00067685
-0.00066317
-0.00065096
-0.00064238
-0.00063736
-0.00063372
-0.00062850
-0.00061951
-0.00060643
-0.00059098
-0.00057616
-0.00056448
-0.00055653
-0.00055057
-0.00054365
-0.00053320
-0.00051831
-0.00050017
-0.00048159
-0.00046553
-0.00045337
-0.00044413
-0.00043512
-0.00042354
-0.00040788
-0.00038873
-0.00036857
-0.00035049
-0.00033643
-0.00032604
-0.00031695
-0.00030628
-0.00029218
-0.00027480
-0.00025630
-0.00023974
-0.00022726
-0.00021882
-0.00021224
-0.00020457
-0.00019368
-0.00017933
-0.00016339
-0.00014886
-0.00013817
-0.00013170
-0.00012759
-0.00012291
-0.00011518
-0.00010364
-0.00008965
-0.00007610
-0.00006586
-0.00006008
-0.00005757
-0.00005553
-0.00005119
-0.00004316
-0.00003221
-0.00002091
-0.00001220
-0.00000766
-0.00000650
-0.00000618
-0.00000384
0.00000223
0.00001170
0.00002229
0.00003095
0.00003562
0.00003654
0.00003596
0.00003685
0.00004128
0.00004942
0.00005938
0.00006816
0.00007333
0.00007455
0.00007371
0.00007375
0.00007710
0.00008441
0.00009426
0.00010372
0.00011004
0.00011217
0.00011144
0.00011060
0.00011225
0.00011749
0.00012528
0.00013286
0.00013727
0.00013710
0.00013332
0.00012859
0.00012572
0.00012618
0.00012934
0.00013268
0.00013319
0.00012914
0.00012114
0.00011172
0.00010383
0.00009936
0.00009821
0.00009827
0.00009646
0.00009047
0.00008016
0.00006756
0.00005568
0.00004688
0.00004175
0.00003873
0.00003486
0.00002740
0.00001548
0.00000058
-0.00001443
-0.00002686
-0.00003550
-0.00004131
-0.00004699
-0.00005550
-0.00006833
-0.00008456
-0.00010151
-0.00011626
-0.00012712
-0.00013446
-0.00014056
-0.00014851
-0.00016033
-0.00017580
-0.00019264
-0.00020786
-0.00021937
-0.00022697
-0.00023258
-0.00023918
-0.00024917
-0.00026287
-0.00027834
-0.00029262
-0.00030333
-0.00030978
-0.00031338
-0.00031700
-0.00032345
-0.00033384
-0.00034691
-0.00035985
-0.00036983
-0.00037539
-0.00037711
-0.00037741
-0.00037937
-0.00038490
-0.00039362
-0.00040314
-0.00041052
-0.00041377
-0.00041293
-0.00041001
-0.00040808
-0.00040941
-0.00041410
-0.00042007
-0.00042435
-0.00042468
-0.00042062
-0.00041382
-0.00040722
-0.00040341
-0.00040302
-0.00040439
-0.00040459
-0.00040106
-0.00039289
-0.00038127
-0.00036901
-0.00035897
-0.00035235
-0.00034802
-0.00034324
-0.00033521
-0.00032253
-0.00030583
-0.00028761
-0.00027090
-0.00025749
-0.00024687
-0.00023658
-0.00022369
-0.00020626
-0.00018430
-0.00015985
-0.00013598
-0.00011506
-0.00009737
-0.00008096
-0.00006288
-0.00004076
-0.00001400
0.00001588
0.00004595
0.00007346
0.00009754
0.00011962
0.00014254
0.00016897
0.00020004
0.00023479
0.00027052
0.00030414
0.00033401
0.00036080
0.00038700
0.00041553
0.00044822
0.00048487
0.00052331
0.00056042
0.00059386
0.00062344
0.00065111
0.00067987
0.00071211
0.00074850
0.00078760
0.00082650
0.00086242
0.00089433
0.00092356
0.00095294
0.00098522
0.00102170
0.00106154
0.00110216
0.00114049
0.00117481
0.00120574
0.00123576
0.00126781
0.00130372
0.00134333
0.00138448
0.00142407
0.00145980
0.00149155
0.00152134
0.00155213
0.00158622
0.00162411
0.00166423
0.00170357
0.00173940
0.00177081
0.00179921
0.00182742
0.00185809
0.00189233
0.00192914
0.00196580
0.00199930
0.00202808
0.00205297
0.00207657
0.00210179
0.00213032
0.00216183
0.00219404
0.00222388
0.00224929
0.00227045
0.00228963
0.00230978
0.00233300
0.00235948
0.00238736
0.00241364
0.00243580
0.00245330
0.00246787
0.00248240
0.00249937
0.00251958
0.00254171
0.00256291
0.00258034
0.00259286
0.00260166
0.00260949
0.00261913
0.00263198
0.00264740
0.00266289
0.00267546
0.00268333
0.00268708
0.00268915
0.00269249
0.00269903
0.00270872
0.00271951
0.00272832
0.00273282
0.00273282
0.00273028
0.00272819
0.00272896
0.00273328
0.00273972
0.00274534
0.00274730
0.00274450
0.00273818
0.00273112
0.00272615
0.00272471
0.00272616
0.00272803
0.00272726
0.00272201
0.00271275
0.00270190
0.00269241
0.00268618
0.00268314
0.00268122
0.00267738
0.00266938
0.00265712
0.00264269
0.00262907
0.00261863
0.00261200
0.00260769
0.00260281
0.00259454
0.00258180
0.00256586
0.00254954
0.00253567
0.00252577
0.00251931
0.00251390
0.00250644
0.00249482
0.00247919
0.00246177
0.00244554
0.00243279
0.00242398
0.00241748
0.00241034
0.00239981
0.00238499
0.00236732
0.00234966
0.00233476
0.00232396
0.00231649
0.00230982
0.00230092
0.00228794
0.00227133
0.00225348
0.00223737
0.00222505
0.00221670
0.00221043
0.00220320
0.00219250
0.00217780
0.00216082
0.00214452
0.00213155
0.00212301
0.00211785
0.00211332
0.00210635
0.00209528
0.00208080
0.00206546
0.00205226
0.00204313
0.00203808
0.00203506
0.00203094
0.00202318
0.00201131
0.00199712
0.00198359
0.00197327
0.00196710
0.00196392
0.00196095
0.00195524
0.00194533
0.00193212
0.00191829
0.00190683
0.00189960
0.00189651
0.00189546
0.00189335
0.00188774
0.00187827
0.00186679
0.00185626
0.00184922
0.00184656
0.00184711
0.00184803
0.00184629
0.00184032
0.00183090
0.00182063
0.00181245
0.00180828
0.00180807
0.00180980
0.00181037
0.00180719
0.00179970
0.00178959
0.00177979
0.00177294
0.00177012
0.00177034
0.00177086
0.00176865
0.00176200
0.00175153
0.00173977
0.00172973
0.00172351
0.00172134
0.00172139
0.00172059
0.00171617
0.00170724
0.00169520
0.00168290
0.00167310
0.00166719
0.00166448
0.00166246
0.00165797
0.00164895
0.00163556
0.00162000
0.00160529
0.00159372
0.00158579
0.00157991
0.00157309
0.00156243
0.00154681
0.00152743
0.00150708
0.00148865
0.00147378
0.00146207
0.00145116
0.00143795
0.00142025
0.00139808
0.00137359
0.00134982
0.00132920
0.00131240
0.00129799
0.00128306
0.00126464
0.00124142
0.00121440
0.00118629
0.00116003
0.00113744
0.00111832
0.00110055
0.00108096
0.00105707
0.00102845
0.00099692
0.00096547
0.00093679
0.00091204
0.00089036
0.00086918
0.00084545
0.00081742
0.00078562
0.00075248
0.00072101
0.00069331
0.00066964
0.00064821
0.00062599
0.00060023
0.00057008
0.00053696
0.00050374
0.00047320
0.00044676
0.00042384
0.00040200
0.00037813
0.00035011
0.00031802
0.00028403
0.00025117
0.00022191
0.00019704
0.00017531
0.00015387
0.00012963
0.00010096
0.00006853
0.00003490
0.00000309
-0.00002484
-0.00004869
-0.00007029
-0.00009269
-0.00011858
-0.00014877
-0.00018174
-0.00021461
-0.00024463
-0.00027054
-0.00029308
-0.00031481
-0.00033882
-0.00036702
-0.00039910
-0.00043268
-0.00046473
-0.00049296
-0.00051689
-0.00053807
-0.00055948
-0.00058396
-0.00061265
-0.00064435
-0.00067625
-0.00070542
-0.00073008
-0.00075043
-0.00076864
-0.00078787
-0.00081071
-0.00083772
-0.00086719
-0.00089611
-0.00092170
-0.00094263
-0.00095964
-0.00097525
-0.00099259
-0.00101360
-0.00103797
-0.00106335
-0.00108674
-0.00110591
-0.00112051
-0.00113224
-0.00114412
-0.00115896
-0.00117772
-0.00119905
-0.00122009
-0.00123802
-0.00125139
-0.00126076
-0.00126855
-0.00127790
-0.00129102
-0.00130789
-0.00132637
-0.00134338
-0.00135647
-0.00136486
-0.00136987
-0.00137441
-0.00138153
-0.00139274
-0.00140724
-0.00142242
-0.00143533
-0.00144405
-0.00144859
-0.00145100
-0.00145438
-0.00146130
-0.00147225
-0.00148547
-0.00149798
-0.00150713
-0.00151181
-0.00151295
-0.00151320
-0.00151567
-0.00152227
-0.00153262
-0.00154430
-0.00155427
-0.00156027
-0.00156190
-0.00156082
-0.00156007
-0.00156251
-0.00156924
-0.00157901
-0.00158898
-0.00159627
-0.00159921
-0.00159813
-0.00159529
-0.00159386
-0.00159622
-0.00160269
-0.00161135
-0.00161921
-0.00162373
-0.00162391
-0.00162086
-0.00161734
-0.00161638
-0.00161960
-0.00162630
-0.00163392
-0.00163953
-0.00164122
-0.00163906
-0.00163513
-0.00163254
-0.00163373
-0.00163902
-0.00164655
-0.00165330
-0.00165673
-0.00165586
-0.00165183
-0.00164743
-0.00164573
-0.00164839
-0.00165475
-0.00166229
-0.00166804
-0.00167005
-0.00166833
-0.00166489
-0.00166285
-0.00166470
-0.00167091
-0.00167965
-0.00168797
-0.00169325
-0.00169451
-0.00169291
-0.00169122
-0.00169242
-0.00169792
-0.00170680
-0.00171639
-0.00172375
-0.00172707
-0.00172657
-0.00172444
-0.00172379
-0.00172700
-0.00173426
-0.00174358
-0.00175190
